419
372
379
434
396
365
420
416
363
402
430
373
375
428
397
369
424
438
395
436
470
418
421
470
458
432
475
453
388
420
449
395
412
461
413
376
428
423
385
423
451
393
407
495
496
503
579
611
581
574
527
428
418
456
394
346
394
371
310
348
379
324
337
393
359
337
392
385
336
377
410
357
368
427
393
371
431
428
384
422
450
398
411
464
423
401
463
460
413
451
476
425
441
501
468
450
511
506
462
505
538
487
503
560
517
493
553
545
494
531
555
500
511
563
523
501
562
555
510
555
584
528
539
595
557
536
597
591
541
580
606
549
557
603
554
526
579
565
514
555
581
524
531
581
534
508
564
548
498
539
560
499
510
557
512
487
542
530
481
522
546
487
498
550
506
485
542
532
487
532
551
494
509
563
532
521
588
580
532
574
597
536
544
591
541
517
572
554
505
552
580
522
537
585
541
520
582
599
613
711
769
750
816
865
748
656
691
675
617
646
653
584
588
630
578
554
605
577
519
556
569
499
500
541
488
464
517
497
447
486
503
449
465
508
457
436
493
479
434
479
502
446
464
515
472
455
516
502
455
501
521
465
480
527
479
461
521
504
458
503
521
463
478
521
468
446
500
478
431
478
502
453
473
521
466
445
500
486
445
491
510
459
481
532
490
480
545
528
485
530
550
494
513
560
512
494
552
533
485
529
546
487
501
545
494
478
534
512
467
516
531
474
492
536
484
467
524
503
458
504
520
464
485
532
487
474
534
515
471
526
558
511
539
584
532
520
581
559
510
555
563
500
519
565
515
501
557
535
491
542
556
502
548
649
659
688
783
813
780
772
723
640
662
701
627
589
629
592
537
575
581
513
526
566
511
493
548
523
477
520
527
465
484
524
471
453
504
477
431
473
477
415
419
438
372
356
401
372
334
394
413
361
387
435
389
381
434
409
366
418
435
381
404
451
404
395
450
420
377
422
431
374
397
441
392
385
445
426
389
441
454
401
430
478
430
424
486
468
434
491
506
455
481
523
474
469
526
503
468
519
526
463
475
505
448
432
479
441
385
420
418
358
376
411
357
353
415
393
358
417
434
383
411
452
409
406
462
435
402
461
474
426
458
507
466
462
522
499
469
530
547
505
545
596
553
560
631
613
582
646
675
640
691
745
698
701
766
742
707
766
775
722
754
796
743
739
797
766
723
773
774
722
781
875
874
905
997
997
976
953
886
803
826
850
768
732
766
718
666
703
687
609
616
636
564
542
579
529
477
515
502
434
447
469
403
389
433
392
344
388
389
338
375
419
373
374
434
410
383
441
452
406
444
491
453
462
524
498
465
523
525
469
500
536
483
480
530
491
451
496
491
434
462
500
452
452
511
479
449
503
505
454
487
527
480
483
542
516
485
538
534
475
502
541
494
504
569
539
497
544
548
500
540
580
526
521
573
539
511
572
577
529
568
607
550
543
588
544
512
577
590
548
590
625
569
566
609
560
521
582
590
549
590
625
569
571
628
595
563
622
622
578
616
652
597
599
650
611
575
627
629
587
632
671
617
616
666
624
586
636
625
563
593
621
558
556
602
560
522
570
562
506
542
588
550
565
635
630
641
688
615
499
513
535
461
444
483
441
409
463
460
408
437
461
404
406
454
420
393
454
456
409
444
472
417
417
467
428
401
454
447
396
428
453
396
404
457
417
383
440
445
404
447
480
422
426
480
446
418
470
462
408
444
475
427
439
497
461
439
494
488
436
473
504
451
459
518
484
463
526
524
477
522
563
518
533
593
559
538
598
595
547
587
618
560
567
619
576
545
597
586
531
564
585
523
522
565
518
486
537
525
473
509
537
481
488
536
489
460
519
511
460
499
525
468
478
529
488
464
523
516
469
513
541
489
504
563
525
500
557
550
502
542
568
512
522
575
529
503
559
547
495
533
557
503
520
580
545
521
575
560
510
554
579
517
530
582
541
519
578
564
512
549
570
512
524
597
592
610
709
750
755
790
748
630
620
664
608
564
601
571
507
534
538
464
458
495
446
417
464
447
397
436
457
398
406
453
408
385
439
424
376
417
441
388
402
451
410
389
448
436
392
439
467
414
434
486
445
427
488
479
436
483
509
458
474
525
480
459
513
494
443
482
496
435
446
493
447
428
484
471
426
471
493
440
456
506
463
447
506
496
455
504
530
480
499
549
504
483
540
526
481
527
549
492
508
555
508
490
547
527
480
525
545
488
504
551
508
493
553
537
495
545
565
508
524
569
519
499
549
526
480
526
545
488
506
553
501
481
534
507
457
494
504
444
460
501
453
436
490
467
418
457
468
408
426
473
426
409
466
451
411
460
477
424
453
514
478
469
528
508
466
510
526
469
485
526
477
464
526
507
465
515
532
475
495
542
510
535
637
664
668
788
839
737
691
712
660
637
683
652
601
641
647
582
595
631
576
562
620
595
546
587
591
522
532
568
509
485
533
507
460
500
506
442
454
490
434
417
472
450
414
466
480
427
452
503
457
449
513
496
462
519
534
480
504
546
496
486
545
523
483
531
541
485
506
546
492
480
537
513
475
527
541
491
518
563
515
511
574
552
513
567
583
535
566
614
565
558
616
593
553
604
617
560
583
625
572
559
612
579
533
574
576
510
525
560
503
489
542
509
466
514
522
465
491
535
485
480
537
509
468
515
522
463
483
519
465
456
510
480
441
491
496
440
464
499
444
435
491
464
428
481
489
434
459
496
446
442
503
481
449
504
516
469
509
558
513
509
564
538
504
563
576
526
555
595
549
553
613
585
549
603
608
549
574
620
598
633
732
742
756
850
819
688
674
702
637
610
645
596
546
586
576
510
528
552
487
476
527
488
448
498
500
444
473
508
453
446
500
466
428
480
483
427
456
493
438
432
487
456
422
475
481
430
462
501
451
451
508
478
447
501
501
451
482
519
465
462
514
477
437
484
484
427
451
484
429
426
481
451
419
473
478
431
470
513
467
471
531
500
470
528
532
486
528
569
521
526
585
552
519
577
579
525
558
592
535
534
589
554
521
576
576
521
554
588
534
533
585
550
518
577
575
522
558
590
532
531
583
542
509
563
558
504
538
571
520
524
577
544
520
582
582
527
556
582
517
509
556
510
468
515
506
449
481
511
453
452
502
461
430
497
529
516
591
661
657
692
701
589
519
566
557
488
507
525
461
461
510
466
432
483
475
425
461
490
435
440
493
458
431
490
489
441
479
509
454
458
510
470
441
496
490
441
480
514
462
471
529
493
470
532
532
491
537
573
522
533
590
553
526
584
574
519
553
575
511
512
555
506
468
517
506
452
485
509
451
456
506
462
433
485
477
427
465
493
437
445
498
462
441
501
495
447
486
516
462
470
522
481
456
513
504
455
495
520
463
471
521
479
455
513
503
454
493
519
464
475
526
484
462
518
509
464
507
534
478
485
533
491
472
532
522
479
532
570
528
551
601
554
531
588
574
524
564
586
527
536
584
536
512
565
548
495
532
552
505
556
648
648
669
785
800
697
667
657
591
594
624
560
524
570
551
497
531
545
479
485
530
480
455
505
486
437
476
496
441
452
500
455
434
487
474
427
469
489
432
447
499
459
442
504
495
451
497
523
470
486
538
494
475
533
502
439
492
540
506
526
569
515
490
539
514
460
496
506
446
457
502
453
433
489
473
430
478
501
447
464
513
470
454
512
493
451
498
519
468
486
535
488
473
529
511
467
513
532
477
497
545
499
484
544
527
483
534
554
500
520
567
518
503
561
544
501
549
566
510
528
573
522
506
562
541
495
541
555
499
518
562
512
495
550
528
484
531
547
492
512
558
511
501
559
537
494
550
576
529
556
600
549
532
586
561
517
559
568
507
525
566
513
496
549
522
476
521
534
488
543
629
623
650
759
778
697
673
652
602
621
646
575
549
594
561
512
554
559
495
510
549
493
478
525
495
449
493
503
447
469
510
458
445
498
472
429
477
486
430
453
497
447
438
497
477
439
493
508
458
486
532
484
479
539
516
479
530
543
492
520
560
506
494
547
515
471
516
519
462
485
523
469
460
518
492
452
502
511
459
486
528
476
470
529
501
465
519
532
479
506
549
496
490
546
517
479
530
537
485
515
556
503
494
551
522
484
536
543
492
521
561
508
503
561
532
495
548
556
504
533
572
518
512
569
539
502
553
556
500
529
568
512
503
555
523
484
534
537
482
510
547
492
486
541
510
474
528
532
479
509
548
496
492
545
514
484
545
555
505
534
565
506
498
549
514
474
524
524
469
500
536
482
480
533
499
466
519
530
510
585
668
650
700
799
735
624
634
625
564
578
596
529
519
564
523
482
532
527
469
498
530
472
467
518
482
447
500
498
444
475
509
453
453
506
472
440
497
500
449
486
525
474
478
537
507
479
538
541
493
532
568
516
520
576
543
513
570
571
519
555
586
528
526
574
531
493
541
532
475
504
532
472
469
518
481
448
500
493
439
475
509
456
457
508
472
445
503
500
450
487
519
464
470
523
485
454
508
503
452
488
522
469
478
538
512
498
574
590
562
630
688
650
666
726
692
669
735
736
682
717
744
684
682
731
687
652
702
690
633
665
686
617
610
651
597
554
595
573
508
531
545
476
468
506
455
417
460
442
385
417
441
382
386
435
394
368
424
418
371
413
443
390
398
445
399
368
419
408
354
390
417
362
370
420
379
352
409
403
357
415
483
466
509
594
598
598
608
525
443
475
498
430
427
472
430
405
458
449
402
443
472
421
434
488
450
430
489
482
441
488
517
466
481
534
492
469
528
517
468
512
538
485
497
551
511
495
558
553
511
560
590
539
560
619
581
563
627
616
571
618
642
583
593
639
587
559
609
587
530
564
579
518
527
571
523
496
548
531
482
522
541
483
495
542
496
472
529
514
467
510
528
471
484
530
481
459
513
496
449
493
513
457
472
520
472
446
500
483
438
484
510
458
476
529
489
475
536
529
493
550
583
540
569
627
587
573
634
619
572
617
638
581
596
638
587
568
624
602
552
597
614
558
573
616
568
550
604
584
536
583
599
539
557
602
552
531
584
562
515
563
580
523
542
591
545
527
576
549
499
538
548
487
503
544
489
468
521
497
450
493
504
451
496
583
577
601
701
724
657
629
590
516
528
560
495
469
519
493
450
497
509
450
464
502
453
443
501
480
439
488
505
452
476
522
473
459
511
491
451
498
514
459
482
533
489
487
551
533
494
549
566
513
540
588
540
528
574
538
491
545
561
508
537
586
535
520
574
542
495
537
542
482
502
539
483
469
522
495
455
506
510
448
469
510
461
455
517
496
458
512
532
484
512
557
506
500
560
534
493
543
549
493
517
557
503
493
549
525
484
533
541
487
512
550
499
491
546
513
474
526
537
482
508
545
489
481
535
507
467
514
519
469
501
542
488
481
537
507
467
516
519
464
490
530
477
467
523
492
455
505
510
456
483
521
474
470
524
497
462
520
531
478
510
551
497
487
540
507
468
519
523
468
499
538
488
486
542
508
468
527
562
545
621
709
711
741
764
660
581
627
633
577
601
630
571
561
610
573
534
582
575
512
536
563
504
498
547
507
466
512
507
446
469
496
436
428
476
440
403
455
457
407
442
475
425
428
484
458
429
488
497
446
476
507
451
450
499
463
432
486
487
431
456
482
421
417
466
428
391
441
438
385
418
451
399
399
450
417
387
442
441
392
431
468
419
422
476
443
416
476
477
428
464
501
448
452
507
473
445
502
500
448
482
515
462
466
520
482
453
508
509
461
499
534
481
488
542
508
483
541
541
493
533
564
507
508
561
525
498
554
551
504
544
577
523
524
577
539
509
565
559
510
552
584
529
536
591
556
529
587
581
529
565
597
541
547
600
561
536
596
590
541
580
604
542
544
591
546
514
567
554
498
534
557
495
495
541
495
474
560
586
575
656
738
724
702
684
594
550
598
573
504
529
543
476
475
518
471
441
491
477
424
458
484
429
434
482
442
419
475
468
421
461
484
427
433
481
440
417
473
466
423
468
496
445
460
516
478
459
518
510
467
513
543
489
502
556
516
494
553
541
492
526
542
478
481
523
473
445
496
480
430
470
496
442
453
501
457
435
490
478
432
476
501
448
464
515
473
457
520
511
465
508
532
475
489
540
497
479
541
532
486
531
552
496
508
557
512
494
553
540
498
544
567
513
530
582
539
521
580
565
520
567
586
528
543
589
540
521
577
559
513
561
585
534
553
602
558
543
610
604
563
609
627
570
586
632
581
560
615
596
551
596
613
554
567
609
561
542
598
578
532
576
592
539
561
608
558
538
590
563
514
555
564
502
516
557
503
484
538
514
468
512
525
474
517
598
592
619
727
766
719
703
661
578
589
620
554
526
574
546
496
538
545
483
494
533
484
473
532
512
471
522
530
465
477
516
462
446
498
472
427
474
486
430
449
491
443
434
497
479
444
499
520
472
499
547
500
493
554
536
500
552
567
514
540
584
533
521
573
542
494
536
538
477
494
532
476
460
514
488
447
495
504
449
472
512
462
451
506
485
451
505
518
469
497
541
492
489
550
528
492
545
554
500
529
570
519
509
564
536
496
545
554
499
527
567
512
502
557
528
489
540
549
494
519
561
507
499
554
525
486
534
539
483
507
545
490
477
530
495
455
504
511
456
481
522
469
465
522
496
462
518
529
475
505
547
502
500
560
536
503
559
563
511
546
590
540
542
608
585
554
612
618
567
595
631
577
566
612
577
536
584
581
520
545
577
514
503
551
520
501
588
633
621
699
793
744
672
657
592
539
574
552
474
489
515
456
449
495
455
413
457
454
400
431
469
419
418
473
440
406
454
450
391
413
443
385
378
429
396
363
420
426
381
421
464
420
425
486
458
429
483
487
437
470
504
447
445
496
459
426
475
468
410
437
467
408
402
448
412
378
430
430
381
413
447
395
395
450
418
390
448
452
404
439
475
425
430
486
456
427
483
487
440
474
506
453
454
509
475
445
498
495
445
479
510
455
460
514
478
450
506
506
459
498
532
482
490
545
510
484
540
537
485
524
554
500
505
558
520
490
548
543
494
531
563
511
515
568
534
505
562
558
510
549
579
522
526
581
544
518
576
572
523
565
597
541
548
602
565
536
591
589
546
593
630
577
585
637
595
563
614
600
540
573
597
535
539
586
542
509
561
551
497
540
595
576
625
718
729
743
774
693
589
610
630
555
544
579
526
490
540
524
466
498
518
457
461
509
465
440
494
489
446
487
517
462
470
518
472
442
494
483
431
469
494
440
450
503
465
446
509
504
461
508
539
488
503
557
518
496
554
545
502
547
572
516
527
574
525
495
544
523
470
508
526
464
473
521
475
450
503
489
442
485
509
455
468
518
477
458
518
509
468
517
546
494
513
565
521
500
555
541
495
540
561
504
515
561
514
490
545
527
478
521
541
485
497
546
504
486
543
532
489
534
556
499
511
555
507
486
542
525
476
519
538
482
498
546
500
483
543
529
484
530
549
493
509
557
512
491
548
532
488
534
554
496
511
558
512
497
554
534
489
536
553
497
517
567
519
498
557
541
503
556
575
521
538
582
531
512
566
541
491
534
548
490
506
550
498
478
529
505
466
540
594
581
642
741
743
706
693
621
557
599
600
525
529
562
502
480
530
504
456
496
506
447
463
505
453
437
493
477
441
493
511
459
481
525
472
456
509
486
445
492
504
450
472
520
476
469
531
515
478
533
550
499
526
573
526
518
577
557
521
574
586
529
550
587
530
511
560
527
478
523
527
468
488
528
473
460
514
488
447
495
507
454
479
524
474
468
528
509
475
533
548
497
524
569
519
512
569
544
505
557
566
510
533
572
518
505
558
531
488
539
547
493
519
560
508
502
558
530
491
542
551
495
521
561
507
496
550
519
477
525
532
476
499
536
482
473
526
497
459
510
516
461
488
527
475
470
527
498
461
512
519
466
494
533
479
472
528
499
461
512
516
462
489
529
477
473
531
502
466
520
526
479
511
552
500
492
545
511
471
517
515
457
480
514
456
448
499
464
427
477
480
439
501
579
564
599
708
705
621
603
569
502
517
531
458
442
486
448
406
454
453
396
421
454
407
408
461
434
406
468
481
438
475
515
462
460
512
479
447
500
502
449
479
517
464
467
528
503
476
538
549
503
543
587
542
549
611
586
558
615
619
571
603
639
584
579
627
584
542
585
575
514
539
565
502
494
542
505
469
519
514
462
495
528
472
474
530
497
470
530
531
483
521
558
505
510
568
535
505
564
565
516
554
589
533
536
594
559
526
579
575
524
561
592
532
532
583
547
519
573
573
524
560
594
539
544
600
564
533
589
587
535
571
600
542
545
595
558
528
583
579
528
565
594
539
547
603
566
540
597
593
543
580
608
551
556
608
568
538
596
590
537
576
604
543
549
601
565
541
597
589
535
567
591
528
526
570
525
492
544
533
477
510
533
472
473
520
487
488
581
616
605
692
774
698
630
626
567
533
574
547
484
513
531
469
470
517
473
444
495
484
434
471
496
440
447
501
464
441
502
498
453
493
518
461
467
515
475
448
504
495
449
492
523
471
487
544
506
481
540
532
487
532
558
503
516
569
529
508
565
553
502
540
559
498
499
542
493
466
516
499
450
490
512
455
466
514
469
449
506
495
450
494
521
469
481
536
496
477
532
521
476
518
540
481
492
539
495
473
529
516
468
510
533
473
486
535
491
471
530
517
468
514
537
484
498
545
501
479
533
516
469
511
530
474
484
530
484
464
523
511
465
509
530
473
489
538
492
472
528
512
468
511
529
475
491
539
493
474
527
508
464
511
531
474
489
538
497
483
542
526
479
520
536
477
490
531
481
463
516
497
451
494
511
455
468
514
474
481
575
598
595
691
758
688
629
617
550
528
573
537
479
516
527
465
476
516
463
441
489
464
418
462
477
421
440
489
446
434
493
474
431
474
488
428
444
486
436
423
480
462
425
478
499
446
467
518
472
459
520
502
462
512
531
478
499
547
500
486
543
520
474
518
528
465
477
514
461
443
495
470
426
471
485
429
448
493
445
432
488
469
431
482
500
445
469
516
470
462
521
501
465
518
533
479
502
546
495
484
541
517
476
524
533
479
500
542
489
477
533
509
468
519
532
479
502
546
496
486
544
519
479
528
539
483
506
548
497
485
541
515
476
528
541
487
513
554
501
492
550
526
487
536
543
487
511
552
501
492
546
522
487
546
564
513
540
580
526
515
571
545
502
549
553
497
521
559
507
498
550
518
478
528
549
528
596
681
676
727
810
735
624
641
641
576
585
606
542
525
570
532
487
533
533
472
495
533
478
470
524
493
458
508
515
461
489
527
475
471
526
496
458
507
510
459
488
529
477
475
534
508
477
534
541
490
521
563
513
512
572
545
514
571
576
520
548
582
523
513
560
520
475
518
515
457
480
511
454
448
500
466
430
483
486
433
463
501
450
452
510
481
453
510
518
473
508
548
497
496
553
522
489
545
548
497
530
566
511
508
562
527
492
544
543
487
521
558
504
501
554
522
490
545
547
496
529
564
509
506
558
522
489
541
537
484
516
549
492
487
540
507
474
527
523
470
506
540
486
487
540
503
471
526
526
475
509
543
491
497
552
517
489
550
558
511
547
580
522
521
574
538
503
554
548
493
523
550
491
489
537
494
460
513
519
498
570
643
627
686
782
715
611
624
606
543
562
576
507
504
551
505
469
518
508
450
484
517
462
468
523
490
468
529
531
485
525
556
499
504
555
515
483
535
527
472
506
533
478
482
530
490
461
516
511
458
491
518
464
471
526
488
463
517
511
464
501
531
477
481
530
488
459
514
506
458
497
531
481
493
552
520
501
567
568
529
577
613
568
587
649
618
605
674
677
632
680
718
666
679
738
705
687
753
748
700
741
774
722
734
789
746
720
779
769
717
755
779
718
722
770
721
686
734
716
654
682
694
621
614
650
590
549
589
561
494
517
524
454
452
490
439
407
455
438
387
421
440
381
388
435
392
367
423
412
365
406
435
380
388
434
393
372
433
425
377
417
439
378
387
430
384
355
411
402
356
397
420
361
373
424
380
361
421
439
431
514
575
562
612
633
506
427
465
449
392
425
442
384
395
447
407
385
439
425
384
427
452
399
416
466
430
417
476
464
421
467
491
437
451
500
458
439
498
485
443
489
515
468
490
544
506
496
562
556
517
569
595
542
565
619
578
561
619
604
559
607
628
567
575
613
557
527
576
549
496
531
541
476
487
528
476
454
505
483
440
485
502
446
462
508
461
442
496
480
436
477
492
438
451
493
441
426
480
457
410
451
464
405
423
469
422
406
461
444
401
447
463
411
431
477
433
417
474
457
416
463
479
425
443
487
440
426
481
463
421
469
485
431
451
498
454
441
496
476
437
486
503
451
473
519
472
459
517
498
459
510
526
470
494
543
502
497
560
543
502
549
563
507
524
566
513
500
554
532
488
535
549
491
509
552
504
511
605
625
627
726
798
749
707
686
608
588
636
597
539
574
573
508
524
560
500
481
528
499
457
500
508
450
469
511
463
453
510
486
446
493
498
441
465
507
460
448
502
478
444
497
510
461
493
539
494
490
551
530
495
550
565
516
544
591
541
537
596
567
527
578
584
523
543
576
520
505
557
523
480
528
535
478
504
544
489
479
534
506
471
525
535
483
513
557
510
507
566
540
504
560
568
512
537
576
521
511
564
532
491
543
546
489
515
553
501
494
549
517
480
533
539
486
516
559
509
505
559
526
486
537
543
488
516
553
498
491
545
515
481
535
539
484
513
551
500
495
549
518
480
534
539
486
515
553
498
494
549
519
483
536
540
486
517
555
500
495
549
518
485
541
546
493
523
561
513
518
577
548
514
568
567
512
540
572
512
505
555
522
485
535
533
476
503
535
478
478
553
555
563
660
711
716
755
729
610
580
625
577
522
560
550
489
515
543
484
478
525
489
455
506
503
449
481
519
470
475
535
503
474
526
522
467
497
529
473
472
523
489
460
516
518
473
512
551
501
508
565
535
507
566
569
523
560
596
545
551
608
574
545
600
600
546
578
606
544
539
586
545
509
557
547
489
520
546
484
483
530
489
456
507
502
454
490
525
473
481
539
506
479
537
533
483
521
553
497
503
558
518
485
538
532
480
512
537
477
478
528
488
459
513
508
461
499
529
472
478
533
494
464
516
507
455
490
519
463
469
522
481
453
510
505
455
492
526
476
485
537
498
473
529
522
474
513
540
485
492
543
503
476
530
522
474
514
541
484
491
539
498
474
530
522
475
514
540
485
496
545
510
492
551
539
487
524
548
488
492
533
488
463
518
508
457
495
519
459
463
512
473
471
564
594
588
673
761
714
662
650
581
549
597
570
506
536
556
494
497
542
496
469
523
509
459
496
517
460
471
526
487
467
525
515
469
510
534
477
487
533
489
469
525
514
467
508
537
485
501
555
515
496
555
547
504
553
579
525
539
592
550
531
587
574
527
568
586
522
525
566
515
486
534
514
463
503
520
460
472
520
474
452
506
489
443
488
510
456
471
522
481
464
523
512
469
512
535
481
497
547
502
482
538
524
480
523
543
483
495
540
493
472
528
511
465
508
529
475
491
540
494
476
531
516
474
524
546
491
509
556
510
492
550
536
494
544
565
512
534
584
540
525
588
572
530
579
601
548
568
616
571
556
613
595
550
594
609
551
565
606
555
538
592
566
518
563
582
529
548
593
539
514
562
537
484
519
525
463
475
513
460
442
493
470
424
469
489
447
500
584
578
604
716
740
665
639
606
536
548
580
520
494
545
518
471
513
523
464
483
524
475
461
515
495
457
512
535
490
518
568
520
504
561
541
500
547
561
504
525
568
518
509
567
548
511
566
586
536
562
609
564
554
613
589
547
597
610
554
577
618
564
545
591
559
509
549
550
485
497
530
472
453
503
471
429
472
483
427
448
489
439
427
483
461
424
475
490
439
462
505
458
449
504
481
440
488
499
444
467
508
457
444
501
476
436
484
499
446
471
513
464
448
503
476
441
491
499
444
467
508
458
451
502
473
435
485
493
436
458
491
431
419
474
447
412
466
481
433
460
495
442
436
495
469
431
483
492
442
466
505
459
461
527
504
467
516
520
466
490
528
473
467
520
489
454
507
511
458
483
521
469
468
545
558
561
658
712
709
746
724
601
565
617
580
528
565
559
497
520
551
493
484
533
498
456
502
500
443
469
505
453
449
503
473
437
487
489
435
460
496
444
439
492
459
427
483
489
439
473
518
469
472
528
503
475
532
533
484
512
541
479
467
513
473
432
475
464
400
418
440
370
352
394
350
300
340
328
265
286
309
244
224
253
243
222
237
208
140
170
213
180
194
270
265
253
323
344
306
352
402
360
368
424
396
370
421
426
382
425
464
404
405
464
439
414
473
485
444
482
525
486
500
577
564
556
633
651
613
673
732
705
738
822
814
807
892
921
900
967
999
994
1000
1003
1002
1002
1004
1004
1003
1004
1004
1003
1003
1004
1003
1002
1003
1002
1000
999
997
925
889
910
839
771
794
756
670
665
657
575
546
563
492
427
458
455
409
457
501
467
499
512
387
294
326
318
252
274
296
233
230
277
233
204
260
260
210
245
278
229
237
294
259
239
305
304
256
299
336
283
297
342
237
83
5
5
5
5
5
5
5
5
5
5
87
402
604
772
847
774
725
714
591
462
414
318
231
287
371
383
456
579
603
620
712
721
668
675
648
529
480
489
409
368
424
437
413
497
579
583
637
725
714
714
791
787
729
768
805
784
855
989
1000
1003
1005
1006
1006
1005
1006
1006
1007
1007
1006
1006
1006
1007
1006
1006
1006
1005
1004
982
567
192
38
5
6
5
5
5
5
5
5
5
5
5
21
126
207
220
296
419
430
433
479
435
352
365
362
268
268
316
290
302
406
441
423
474
493
422
418
453
399
350
370
325
261
313
381
380
422
503
540
577
631
626
633
750
840
822
871
969
954
941
995
977
914
930
937
882
905
968
946
955
1000
999
993
999
998
953
922
917
810
715
712
646
553
569
585
545
591
685
700
730
818
808
737
741
709
593
544
520
405
325
343
305
248
293
329
282
304
363
343
358
439
423
384
440
453
366
332
325
267
259
338
325
266
294
296
246
304
400
396
406
470
418
293
234
184
72
44
78
58
98
221
268
270
358
407
379
441
551
573
626
740
742
671
676
649
539
509
530
496
532
698
820
930
1003
1005
1005
1005
1006
1006
1006
1005
1005
1001
942
783
622
588
608
551
553
651
682
680
736
734
637
592
560
433
335
312
236
162
211
277
311
420
506
471
489
556
485
405
431
418
316
266
232
128
72
96
58
11
75
117
103
163
268
275
298
383
377
327
338
307
190
157
163
89
64
138
151
153
256
309
256
292
349
294
277
343
345
308
363
389
351
401
472
448
470
585
631
653
739
776
720
723
736
654
613
618
527
431
439
422
354
380
447
461
554
736
829
863
929
911
787
729
687
546
459
457
398
349
429
487
478
544
649
677
749
861
840
784
797
736
587
526
497
401
378
442
440
434
530
584
553
585
624
557
498
497
429
369
418
447
424
486
551
510
502
556
523
477
519
509
437
454
490
436
423
455
398
346
414
491
524
611
670
634
646
687
610
576
666
745
752
814
893
899
962
1001
1002
1003
1004
1003
1001
999
985
872
824
880
868
857
940
968
924
968
996
949
914
911
817
719
737
713
631
630
636
546
504
546
523
510
590
594
517
535
585
550
555
615
588
560
627
643
600
640
686
636
644
713
691
646
683
666
590
610
632
559
535
569
516
476
532
549
533
615
699
689
721
793
764
714
753
746
677
663
637
559
546
579
486
374
343
274
155
124
114
33
21
80
61
49
132
164
142
206
277
257
281
346
305
248
275
238
149
148
165
111
112
164
115
53
72
53
16
106
208
218
277
391
372
292
307
288
213
211
207
131
135
217
226
236
323
337
285
311
327
255
232
274
235
206
271
279
226
255
281
216
199
223
144
47
22
5
5
5
5
5
5
5
5
66
277
368
348
403
449
397
397
440
390
340
370
346
272
297
345
331
384
487
484
473
529
503
430
468
514
460
446
468
406
357
398
388
339
390
445
419
442
494
446
407
444
410
331
344
357
295
305
366
324
287
360
374
329
358
372
291
264
286
225
182
242
254
228
303
383
384
445
551
552
546
604
578
490
491
477
388
366
395
342
311
379
395
383
480
598
647
760
925
985
969
964
876
764
752
728
619
583
596
530
499
572
592
578
663
740
723
763
831
785
736
754
692
586
577
572
494
496
556
539
552
652
682
666
737
780
723
720
744
660
590
606
564
493
520
542
497
526
599
582
579
653
651
600
631
632
545
530
559
494
457
504
491
454
511
554
517
542
592
540
500
534
496
434
468
496
452
484
563
546
558
660
690
676
750
789
727
723
747
670
618
654
623
561
593
607
556
582
645
618
619
707
718
688
749
782
736
753
801
752
731
793
780
733
786
818
769
785
834
789
771
840
852
845
940
997
995
1002
1003
1000
998
998
959
877
885
869
767
733
739
652
592
616
567
491
510
503
423
416
446
387
359
406
382
331
368
381
325
350
415
394
400
473
462
414
459
492
469
534
634
644
691
823
879
884
937
903
743
643
590
471
415
454
438
412
488
539
505
533
573
511
481
516
471
392
386
343
223
184
194
130
112
191
209
202
293
361
357
425
519
514
531
611
593
526
530
485
374
351
371
318
315
394
402
390
473
525
500
555
630
598
578
615
558
473
480
448
353
345
376
331
323
392
387
358
416
431
376
398
443
397
390
455
444
408
462
482
439
495
593
607
658
802
861
819
816
792
726
740
765
689
654
692
653
598
633
629
554
556
579
507
476
517
480
428
466
463
392
399
427
370
356
412
390
349
399
416
367
397
448
407
410
479
474
450
513
534
489
522
570
526
527
588
567
534
587
575
505
534
594
546
511
542
496
439
470
461
387
403
447
406
418
504
509
491
551
558
491
513
557
514
508
558
520
468
504
499
443
477
534
502
515
596
591
571
645
670
623
649
686
623
595
619
553
481
513
516
469
516
587
574
611
711
714
684
732
724
644
646
657
571
534
561
503
440
472
464
402
436
485
443
442
500
468
425
460
456
405
432
464
406
399
456
423
384
442
457
418
466
529
494
499
556
515
468
501
489
422
451
510
493
533
629
641
657
701
621
487
482
505
434
414
455
409
359
405
408
359
401
453
414
420
479
448
412
466
470
416
447
480
422
416
469
434
397
447
452
410
456
513
475
487
552
520
488
548
556
504
532
556
490
477
521
478
447
511
532
503
563
627
592
599
656
620
584
633
620
542
554
575
507
494
536
497
470
537
548
505
548
587
526
515
558
519
490
545
542
493
532
566
507
501
548
501
460
508
502
445
472
500
442
449
514
484
446
483
465
408
441
471
407
400
448
417
392
452
455
415
468
525
488
502
563
537
512
581
587
538
572
594
524
512
558
523
496
556
551
498
549
606
575
601
664
626
590
631
603
521
529
537
471
475
532
507
493
562
565
520
564
600
545
560
654
667
696
810
866
851
846
785
668
661
724
682
639
683
663
587
599
604
525
515
548
492
446
479
454
392
418
437
386
399
455
411
372
420
413
364
402
429
378
394
458
440
434
510
521
491
557
614
580
601
656
605
561
597
571
506
538
571
532
560
637
615
598
656
644
591
624
632
547
519
531
449
391
428
415
372
426
469
429
454
520
489
480
559
572
542
596
627
558
551
584
527
493
540
519
462
498
526
480
503
567
538
529
604
602
546
561
543
444
416
435
375
342
394
381
335
385
423
376
390
440
399
374
421
393
323
341
349
287
306
365
336
331
415
433
415
485
527
474
479
523
476
454
509
492
441
480
504
455
477
534
499
486
553
546
501
544
557
495
526
608
604
629
745
789
719
682
648
579
593
638
580
553
607
582
512
523
507
417
403
441
400
388
457
456
419
474
510
466
492
552
515
500
558
535
480
515
532
483
513
584
563
566
636
619
566
602
610
538
545
585
537
520
577
550
495
544
569
526
561
624
588
569
616
577
501
516
503
424
427
470
427
412
471
458
422
479
516
482
524
600
586
600
685
682
643
699
727
664
665
693
626
581
596
534
455
480
490
438
465
526
494
507
600
624
620
701
737
679
690
722
655
617
657
624
572
621
636
575
590
634
589
585
664
663
635
695
713
647
650
679
614
585
641
628
603
681
720
676
707
759
710
693
745
709
645
673
664
579
574
601
541
527
590
566
513
549
544
467
467
488
417
382
421
387
337
383
394
338
358
394
338
326
399
415
414
497
541
525
559
545
421
374
431
415
379
430
437
379
402
436
377
352
392
356
305
353
372
319
351
411
380
385
455
445
416
470
474
407
413
433
364
339
388
364
332
398
427
389
426
478
434
431
496
475
439
490
500
444
464
496
434
423
484
473
453
526
551
501
524
558
487
455
484
433
382
426
435
386
416
461
413
411
480
472
448
513
532
482
511
550
488
466
515
483
448
504
522
480
519
571
529
527
580
553
518
572
582
527
556
589
527
509
549
514
480
540
557
511
541
587
529
520
575
538
493
540
544
488
508
538
483
476
535
514
489
553
571
531
572
612
555
550
600
571
536
589
592
535
569
607
551
538
576
532
494
543
542
478
502
533
486
485
543
512
478
528
522
458
469
493
460
501
605
611
630
746
742
634
643
700
661
653
694
641
589
621
589
495
504
521
451
442
488
454
425
491
507
472
533
608
591
619
695
669
630
667
633
524
497
482
399
390
456
450
451
542
580
559
623
674
617
601
627
551
472
484
451
379
406
447
405
423
503
493
478
547
551
492
510
523
441
417
448
396
353
405
407
362
407
457
425
454
535
524
512
584
596
552
593
624
554
531
554
488
432
456
422
346
355
371
309
310
369
343
324
391
398
350
387
423
369
374
431
398
372
433
434
386
425
460
410
425
496
484
481
565
584
550
603
642
587
583
616
567
531
601
609
572
620
650
587
585
632
585
547
591
571
502
514
516
439
434
508
488
470
532
539
515
593
656
612
635
721
664
560
558
540
497
539
566
509
519
576
535
503
550
524
452
470
477
406
400
445
409
390
461
469
429
471
494
425
415
448
386
340
379
359
301
345
389
353
384
466
457
457
541
562
537
597
636
579
581
623
569
539
603
610
580
644
701
673
710
789
766
747
805
787
719
741
752
676
671
711
653
606
643
612
537
558
572
506
507
547
491
456
503
483
431
468
489
431
435
476
429
398
444
423
363
396
416
356
365
415
373
350
415
413
379
439
487
452
476
533
485
450
495
479
437
490
520
461
467
511
458
430
487
485
456
526
580
554
588
646
596
568
620
603
549
587
604
542
549
590
537
510
576
581
558
630
674
625
638
669
593
537
566
543
521
605
657
610
644
710
616
518
544
538
505
545
553
487
495
533
476
442
485
460
408
449
471
415
425
475
446
456
548
568
551
616
648
590
597
628
562
524
566
542
493
539
557
495
503
545
495
482
555
550
507
549
562
503
516
564
516
501
566
555
514
565
579
514
517
554
494
463
505
475
423
463
487
435
461
519
486
488
561
555
518
566
575
502
501
528
464
436
482
461
422
484
524
491
533
596
553
536
585
551
488
515
512
443
457
504
464
460
532
526
499
564
597
550
577
628
579
561
609
573
511
543
544
479
496
542
498
489
543
522
489
550
577
530
549
582
516
484
525
489
438
484
501
455
487
541
493
474
514
465
402
443
469
456
552
677
686
724
843
835
733
735
745
699
717
739
659
618
643
585
517
552
557
498
522
571
525
515
571
542
500
552
569
517
534
557
482
444
475
431
385
443
470
436
476
534
491
482
534
500
455
503
514
460
481
513
452
437
494
480
460
534
570
531
560
595
523
487
517
473
429
478
489
435
457
494
438
426
486
472
448
514
531
475
492
519
453
435
491
476
454
528
557
513
543
581
524
511
565
536
496
543
539
467
468
485
414
399
457
442
417
478
489
426
439
467
405
388
437
408
376
440
456
400
419
457
403
394
445
414
378
435
446
389
410
443
391
398
476
467
441
494
498
431
440
456
384
367
421
394
357
409
423
391
464
555
542
577
683
649
543
544
540
488
500
505
422
405
454
415
375
425
429
376
417
480
457
495
592
586
566
629
635
574
588
598
518
500
548
506
465
513
525
488
563
655
657
708
813
811
777
818
800
712
707
716
632
601
644
601
570
641
678
672
774
906
940
990
1001
983
890
856
767
640
613
602
504
469
500
443
389
436
443
415
480
577
607
698
843
874
864
899
839
705
651
605
478
406
403
358
327
401
444
451
574
741
803
875
991
1000
1002
1004
1004
1005
1005
1005
1003
984
777
473
282
263
244
213
307
431
502
663
904
1000
1002
1003
1003
970
750
488
209
51
11
5
5
5
5
6
141
293
326
376
467
493
528
594
516
368
328
265
94
28
77
80
91
186
236
241
333
423
420
456
521
458
376
363
279
157
136
141
71
77
161
169
184
296
361
375
456
507
442
406
403
315
238
255
228
166
203
241
195
220
313
323
341
434
458
436
500
557
522
529
561
490
419
420
375
316
366
425
408
457
558
550
549
625
628
590
648
697
677
750
899
965
999
1002
999
929
863
823
755
787
888
894
890
949
905
800
788
778
689
680
730
687
657
705
674
610
650
703
696
766
875
863
829
843
763
631
608
596
516
527
599
591
609
706
725
683
712
718
625
576
539
417
329
336
290
214
240
270
237
304
457
531
575
648
634
559
529
479
417
457
542
512
487
537
514
457
484
484
401
378
401
337
279
301
261
190
225
267
240
296
398
395
412
524
563
546
596
601
484
400
357
234
134
140
112
67
142
224
240
340
482
531
608
762
809
787
818
801
679
614
594
489
427
467
463
454
570
674
691
766
872
872
873
924
865
734
672
582
423
363
376
317
293
359
371
369
475
569
585
684
826
816
755
725
609
475
438
384
267
239
238
140
84
133
134
127
234
329
356
453
582
616
674
768
734
618
575
494
349
289
292
226
198
272
295
292
394
482
507
611
753
779
777
796
712
595
567
496
356
325
349
286
295
450
567
653
807
902
886
883
867
719
572
501
365
228
208
211
174
244
366
403
476
653
766
836
952
955
790
651
531
343
226
234
205
177
255
319
311
379
482
494
524
605
583
510
509
469
370
349
381
344
355
453
497
540
700
821
851
938
999
979
929
907
789
639
596
540
443
445
488
451
461
562
610
651
784
853
815
826
830
710
601
554
430
317
325
322
264
289
346
320
337
423
422
374
406
417
363
380
406
332
315
394
390
367
448
481
428
456
514
482
480
541
505
448
479
466
385
391
432
387
393
493
543
619
820
951
953
998
1002
992
948
983
945
846
818
756
647
645
682
627
599
620
573
543
614
639
584
600
621
536
484
499
439
367
383
367
301
325
407
422
466
561
558
532
603
650
646
742
833
781
761
813
774
722
762
765
687
700
727
664
648
698
662
606
638
627
551
556
573
500
475
517
477
425
463
457
393
415
450
389
375
428
401
365
421
420
363
396
441
380
362
414
391
352
402
406
357
385
426
378
368
415
400
367
420
431
374
411
464
422
414
478
446
402
452
463
409
433
461
407
400
461
444
399
414
392
280
146
5
5
5
5
5
4
5
5
5
5
5
5
19
211
298
309
362
336
226
200
208
140
133
183
156
137
214
255
251
333
422
416
444
514
485
442
476
458
378
393
420
370
381
469
475
473
544
560
516
553
600
558
581
669
672
671
758
799
791
862
915
880
891
953
926
894
949
975
960
999
1001
1001
1003
1004
1005
1005
1006
1006
1006
1006
1005
1006
1005
1005
1004
1002
1002
997
919
894
896
822
811
843
774
709
752
750
703
738
764
696
662
681
599
529
566
541
453
445
433
353
331
377
371
375
467
510
462
479
494
426
415
453
404
359
376
371
345
441
524
470
441
485
419
339
391
409
369
391
399
331
320
358
338
341
436
460
436
490
546
507
525
598
583
563
618
627
615
691
738
700
706
750
686
619
648
610
512
510
524
465
471
531
510
493
556
569
544
591
619
556
555
605
555
525
605
643
639
734
834
854
958
1003
1003
1005
1006
1007
1006
1006
1007
1004
1007
1006
1007
1007
1007
1006
1007
1007
1006
1007
1006
1007
1007
1006
1007
1007
1007
1006
1006
1006
1006
1007
1006
1006
1005
1001
727
439
260
67
6
5
5
5
5
5
5
5
5
5
5
5
5
5
5
5
5
5
5
5
5
4
5
5
5
4
5
5
5
5
5
5
5
5
5
5
5
6
5
5
5
5
5
5
5
5
5
5
74
127
181
230
164
94
95
27
5
6
6
5
5
5
5
5
5
5
96
271
383
387
452
583
638
714
859
871
733
592
404
163
43
49
50
140
374
594
804
977
952
812
773
795
729
681
698
646
563
581
587
512
503
530
455
396
419
379
290
280
241
111
55
53
5
5
13
28
13
59
72
5
5
5
5
5
5
5
5
5
5
5
5
5
5
5
5
5
5
5
5
5
5
5
5
59
262
373
397
485
562
542
600
719
814
942
1001
1003
1004
1005
1006
1005
1006
1006
1005
1005
1005
1005
1004
1004
1004
1004
1004
1005
1005
1006
1005
1004
1003
1002
920
610
382
245
66
5
5
8
18
135
256
290
367
425
321
155
9
4
5
5
5
5
5
5
5
5
5
5
5
5
4
5
5
5
5
6
5
5
5
5
5
5
5
5
126
375
587
617
599
712
855
943
1002
1004
1005
1006
1006
1006
1006
1007
1006
1007
1006
1007
1007
1006
1006
1006
1006
1006
1006
1006
1006
1006
1005
1005
1004
1003
1001
999
960
835
801
821
769
749
829
852
849
909
895
793
765
770
686
631
639
575
492
515
536
507
553
617
597
591
579
457
339
331
299
199
171
167
68
9
33
5
5
5
5
5
5
5
5
5
5
5
5
5
5
5
5
5
5
5
5
5
5
26
156
205
281
377
415
469
597
724
788
785
737
717
845
1000
1002
1004
1006
1006
1006
1006
1006
1007
1006
1007
1008
1007
1006
1007
1008
1006
1006
1006
1006
1006
1006
1006
1006
1006
1005
1006
1005
1004
1004
1003
1002
1001
1002
999
982
994
981
932
971
1000
994
999
1002
1000
963
911
796
605
462
331
134
29
62
90
170
317
396
424
495
441
239
85
13
5
5
5
5
27
187
301
254
240
311
326
326
403
439
415
465
503
460
493
609
633
640
756
793
692
654
645
561
528
571
541
506
563
566
501
514
538
505
562
697
754
813
948
955
787
693
734
727
698
772
860
998
1003
1002
1001
1002
1002
998
997
1000
998
998
1002
1002
1001
1002
1002
984
918
897
799
690
654
555
406
348
308
201
168
212
176
140
186
175
108
133
170
128
136
197
174
155
226
239
184
213
260
227
251
346
356
357
444
481
452
498
545
501
508
565
515
462
475
421
337
413
520
521
544
613
587
561
631
626
533
500
455
327
269
285
219
159
206
216
181
236
284
250
278
371
386
393
483
523
500
542
569
491
456
463
390
341
384
360
290
317
347
295
307
373
338
295
344
336
273
291
300
231
241
343
393
448
588
671
702
790
799
688
680
754
740
722
783
784
732
761
786
719
713
757
717
681
727
715
665
709
747
700
723
796
781
765
829
822
761
784
792
699
665
683
613
558
599
580
509
525
539
463
451
490
447
419
467
454
396
417
429
352
338
381
343
315
374
373
321
346
360
288
274
301
240
194
240
242
199
248
293
251
267
332
307
294
361
366
331
381
413
357
365
414
375
345
399
383
331
366
390
333
340
396
366
354
423
429
396
450
492
444
457
512
471
441
491
480
432
478
509
462
487
561
542
537
632
686
700
807
911
934
997
1002
1002
1003
1004
1004
1004
1004
1004
1003
1003
1003
1002
1000
1001
1000
988
998
1000
999
1002
1003
1004
1003
1004
1002
923
807
718
583
537
548
481
446
496
478
426
449
451
380
375
409
345
298
340
321
260
291
313
257
270
327
297
289
357
349
291
323
344
286
303
363
327
303
352
329
275
307
325
270
285
334
288
262
318
307
263
310
335
279
294
345
301
280
327
295
228
246
248
174
171
213
164
141
197
183
136
180
209
167
195
261
236
229
282
243
169
196
204
132
133
172
121
94
148
136
97
155
199
167
199
268
251
256
331
331
297
353
375
312
320
366
332
326
391
387
358
421
461
422
454
522
502
511
594
602
565
611
637
590
613
665
616
595
666
671
635
697
728
680
704
749
696
670
718
684
620
652
664
601
613
660
630
635
717
724
720
805
791
661
635
672
617
586
634
616
574
624
640
575
583
616
549
517
552
509
448
481
492
434
443
479
425
408
472
471
448
500
541
504
535
571
517
523
623
653
657
749
810
792
834
892
841
816
872
861
823
899
970
954
995
1001
1000
1001
1001
996
954
971
974
919
935
961
884
833
851
794
720
735
717
621
588
578
477
433
473
450
423
487
515
474
510
571
544
554
626
617
580
625
621
546
557
591
547
553
628
631
616
685
702
632
625
633
553
517
557
516
456
484
474
401
402
422
357
337
390
378
357
423
449
412
445
494
447
437
488
461
425
477
496
450
486
541
504
497
541
507
479
560
602
571
616
662
607
599
662
638
601
660
674
577
511
482
406
378
408
366
320
372
385
333
353
388
334
320
363
327
284
330
334
277
305
344
297
280
326
295
257
308
323
286
327
385
356
371
442
422
390
438
440
383
410
455
416
424
484
456
412
455
455
398
421
456
410
411
469
447
419
474
485
436
459
489
433
426
477
450
416
466
473
426
460
498
449
446
501
483
461
524
543
506
550
599
556
559
620
595
562
616
618
562
586
616
553
536
571
521
474
518
515
457
481
507
444
430
481
445
408
459
461
408
437
472
423
429
494
474
452
516
534
503
552
602
559
566
629
609
583
642
656
618
664
714
681
702
782
775
759
824
833
781
803
820
754
746
807
786
772
862
848
719
672
658
570
537
562
508
458
485
461
390
400
409
335
320
360
317
282
341
354
313
354
396
349
355
415
386
354
405
406
355
374
391
330
324
376
347
323
385
397
359
408
456
418
428
484
452
422
470
458
400
430
457
399
399
451
422
397
460
475
440
485
523
474
478
534
502
474
530
522
468
496
520
462
455
498
462
435
496
503
465
504
535
480
483
529
485
450
503
501
452
488
520
468
475
533
507
492
558
560
513
547
571
503
497
540
502
479
541
548
519
579
632
598
615
673
639
618
681
683
636
671
684
606
590
619
556
506
543
523
468
502
531
477
474
518
471
437
482
473
439
499
558
532
567
666
628
548
553
530
486
529
557
504
509
555
509
478
530
519
474
514
544
494
508
562
534
530
607
615
568
603
624
562
563
614
573
550
612
610
561
601
629
564
559
594
535
492
534
503
434
457
467
400
408
464
435
426
498
504
470
520
547
486
491
537
488
458
506
487
429
458
473
416
431
489
457
445
512
508
460
498
517
455
459
505
464
442
497
484
433
470
490
433
445
498
461
443
503
494
452
496
526
476
493
552
522
514
585
585
543
585
603
541
546
589
536
510
565
548
498
537
555
499
518
575
530
508
562
544
491
526
541
478
489
540
495
478
544
542
526
601
635
579
591
641
597
593
670
676
651
736
800
720
662
664
603
572
619
592
533
571
584
520
526
562
502
469
508
472
407
433
444
385
402
452
409
395
451
433
383
423
439
379
393
441
395
377
429
415
381
439
472
427
452
507
462
441
491
464
407
439
451
399
417
464
426
420
484
478
446
501
523
464
470
497
427
387
423
390
334
376
398
351
376
430
397
398
469
465
429
479
502
449
468
510
458
437
484
459
413
462
483
438
469
531
499
499
572
567
532
584
603
546
561
594
533
512
564
537
491
545
570
520
546
596
548
535
598
589
549
597
609
545
560
591
527
502
549
522
481
536
558
503
522
569
518
498
549
521
474
530
583
564
622
710
724
751
775
693
619
668
681
615
622
653
586
559
606
576
526
566
576
522
545
581
530
521
579
555
516
566
581
525
545
581
520
493
538
510
469
525
545
495
526
580
536
529
586
559
511
558
568
512
530
571
519
509
573
550
512
570
592
542
570
613
558
538
582
536
470
494
487
427
449
490
446
445
509
490
459
516
528
475
504
551
502
490
545
520
484
541
553
505
533
572
515
505
560
534
499
549
556
504
534
578
529
514
561
516
462
502
503
443
464
502
444
428
481
452
409
457
467
420
454
499
450
446
499
461
421
476
482
428
455
499
456
459
522
493
452
507
516
464
487
528
497
523
607
603
606
706
686
555
542
578
527
515
565
521
475
513
499
423
436
458
397
386
435
400
359
410
412
358
394
440
397
399
458
437
406
458
456
396
410
429
357
351
413
391
368
435
447
396
419
445
384
380
439
420
393
442
427
353
365
387
329
327
393
376
360
428
437
384
408
441
393
402
461
437
407
466
473
426
464
503
449
441
493
460
439
509
531
497
546
589
533
520
564
524
478
514
500
439
464
493
433
427
480
453
436
503
512
469
499
524
460
450
505
472
451
526
545
507
547
574
507
506
562
521
486
533
522
467
507
550
506
525
601
594
586
666
676
624
663
695
638
629
667
610
575
659
682
654
740
849
799
741
760
726
704
751
724
643
656
672
608
606
647
602
559
611
609
556
594
634
583
593
657
622
596
649
639
584
623
674
626
629
682
642
612
658
670
636
712
790
787
824
894
877
868
942
959
911
973
999
986
997
1001
1001
1001
1003
1002
999
1001
1001
997
998
999
968
916
929
892
816
832
848
791
810
892
861
835
886
859
743
710
664
531
476
475
392
324
340
281
181
189
186
87
53
63
5
5
5
5
4
5
34
48
108
177
115
32
43
15
5
5
4
5
5
5
5
5
5
42
100
201
267
242
261
294
210
120
112
52
5
5
5
5
5
11
83
211
420
527
525
574
599
492
389
305
182
130
173
135
94
156
221
221
308
441
450
425
483
492
446
498
534
434
373
391
375
353
370
346
305
342
356
362
404
430
386
408
557
618
584
623
624
547
583
669
652
652
691
668
665
780
819
726
732
804
787
761
840
870
864
949
996
972
989
998
974
958
998
997
980
998
999
976
965
995
932
874
909
858
819
901
950
915
911
964
917
862
873
827
757
774
779
687
627
579
516
530
601
572
502
509
509
471
529
568
506
462
489
452
399
435
429
352
357
381
306
283
377
405
381
449
492
423
415
463
456
450
477
429
383
447
507
482
510
536
420
329
370
386
410
533
592
529
515
557
562
615
644
531
425
433
448
398
397
454
435
431
516
540
521
602
661
599
583
630
587
553
562
502
442
493
532
525
567
646
696
795
895
877
832
885
890
777
721
717
633
603
627
581
537
589
624
612
698
793
758
738
790
768
720
737
684
581
582
632
569
509
551
565
527
542
556
498
496
528
471
434
433
352
270
288
286
206
208
262
241
275
391
409
398
469
501
472
507
570
510
488
547
523
468
502
516
479
492
508
485
538
645
652
675
768
760
675
672
681
618
596
638
635
642
752
809
774
816
878
804
741
761
748
726
779
767
655
636
644
542
469
489
452
407
454
469
444
523
624
610
648
774
790
749
775
763
671
651
634
509
442
478
420
312
357
405
385
430
478
449
486
588
588
521
517
492
432
432
415
325
312
374
356
322
365
395
392
472
560
546
579
670
669
655
723
721
626
590
537
413
386
452
457
410
438
451
436
502
561
523
533
614
647
692
810
854
753
698
711
630
565
584
554
533
590
570
490
519
589
557
566
627
586
492
498
480
408
412
414
321
302
350
311
269
337
365
333
375
469
493
575
683
644
561
559
485
305
245
268
225
250
331
314
300
375
420
377
426
517
487
462
487
428
356
363
340
278
298
323
269
284
358
329
302
388
414
381
444
511
485
499
561
533
511
578
590
531
526
549
520
551
638
621
589
634
657
628
646
642
519
482
498
416
358
408
417
391
457
482
381
357
414
380
378
467
482
407
403
422
357
338
369
319
292
360
379
363
441
493
473
515
616
607
592
660
644
567
579
605
574
594
615
574
593
671
663
602
634
653
552
502
504
428
371
439
452
387
440
508
473
483
565
566
557
600
587
537
525
457
312
301
385
380
358
405
388
340
407
462
426
466
567
571
572
656
674
627
666
696
626
605
643
588
564
640
655
629
676
702
648
605
590
489
423
486
499
453
505
557
543
586
663
646
639
677
637
540
529
498
386
353
371
303
273
358
395
389
465
514
454
445
486
441
400
465
482
457
523
573
539
593
671
655
646
749
788
763
825
835
743
723
714
588
515
525
472
402
437
501
492
553
653
648
642
671
604
483
440
385
266
251
301
266
251
332
352
316
353
385
372
425
518
556
632
742
741
662
632
539
395
393
486
482
441
496
533
510
549
535
419
383
399
343
311
374
388
382
444
471
432
440
489
439
415
481
484
429
424
414
350
374
438
402
383
435
397
332
368
419
389
411
482
460
458
555
576
563
626
670
630
661
743
693
598
631
614
530
495
462
402
472
534
454
464
574
582
520
518
532
493
512
557
504
474
497
457
417
484
558
526
545
604
547
524
589
569
517
540
520
443
449
479
420
443
572
599
572
706
832
855
936
998
962
935
977
971
965
1001
1003
1002
1003
1003
982
845
762
617
473
471
467
391
399
445
407
404
470
464
460
541
538
411
334
303
229
206
235
212
193
248
314
352
492
685
786
855
951
957
889
851
715
513
457
449
344
286
322
311
310
421
477
438
484
564
555
571
612
511
401
388
346
243
240
287
253
269
364
370
365
455
522
509
602
735
727
707
792
791
740
769
764
687
621
585
500
463
511
487
456
520
556
513
554
622
591
572
557
445
339
296
227
118
117
186
196
250
344
335
317
411
467
442
451
440
349
315
398
443
490
629
711
715
800
832
718
699
792
767
671
706
730
627
576
588
487
382
373
310
229
260
290
270
313
385
397
422
456
420
382
409
414
372
390
408
350
341
388
353
314
380
396
351
418
525
518
547
624
594
535
542
507
441
487
545
503
535
638
660
648
701
687
625
628
585
465
434
479
448
382
402
414
379
393
435
408
413
480
461
419
469
471
423
438
460
409
435
517
495
484
562
597
573
636
725
735
765
838
824
813
864
836
745
733
741
607
522
526
457
395
421
395
326
354
390
375
445
590
591
522
517
456
309
231
221
188
220
290
267
229
277
297
282
362
446
453
486
566
560
520
567
573
538
544
539
447
435
499
484
446
484
498
475
533
577
497
471
493
419
337
355
328
267
316
389
391
457
601
658
718
872
918
859
888
924
835
777
777
680
575
558
514
416
437
508
479
510
597
571
518
562
551
466
451
422
315
276
307
240
165
204
217
209
304
389
387
426
500
509
522
606
612
533
530
553
491
486
541
498
456
514
530
510
573
646
623
662
750
724
678
698
649
549
543
531
457
464
542
554
556
615
619
575
595
628
597
618
702
670
632
685
679
607
604
582
475
438
449
373
321
390
395
346
383
428
404
441
496
436
399
449
440
397
427
427
351
340
391
375
380
453
447
394
445
484
421
415
454
414
376
426
433
391
455
528
501
543
642
644
680
798
805
754
794
820
760
743
770
707
638
626
531
391
369
361
304
348
462
496
532
630
621
522
501
473
370
334
359
329
321
375
358
309
373
440
453
510
598
590
601
674
643
541
525
477
361
338
374
345
338
424
441
413
468
489
395
361
369
276
208
252
268
297
461
585
587
679
829
824
782
822
815
773
805
828
769
786
833
775
783
893
920
901
966
999
1000
1002
1004
1002
1001
999
931
788
748
698
576
552
585
533
521
590
566
534
616
644
545
500
487
397
333
348
308
256
292
318
295
378
489
489
526
636
628
555
548
498
378
321
304
204
146
188
165
122
213
301
313
375
456
450
454
538
531
475
515
503
419
407
430
348
286
340
352
334
417
486
480
543
615
574
570
627
557
466
481
459
349
313
318
245
219
294
332
337
417
450
405
453
519
469
430
452
403
330
337
326
268
280
294
242
251
341
338
336
460
582
619
708
802
766
719
718
683
653
699
706
637
658
716
692
704
794
815
798
849
860
793
791
788
683
631
677
624
547
571
559
470
452
453
380
356
410
389
346
381
376
286
263
276
210
195
273
290
290
377
407
336
363
418
360
335
405
419
423
505
544
487
475
457
343
273
304
291
276
368
438
428
460
485
414
392
455
456
432
485
494
430
446
490
450
463
560
566
550
626
653
590
601
637
584
577
641
634
618
705
765
768
844
944
947
989
1002
1004
1005
1005
1005
1006
1006
1005
1006
1006
1006
1006
1006
1005
1006
1005
1005
1005
1004
1001
1001
924
799
787
746
631
591
563
443
399
450
436
422
522
569
478
413
375
285
269
325
291
242
287
296
234
239
257
174
134
166
122
74
131
149
110
158
223
191
205
286
278
263
341
375
343
384
430
377
375
433
418
405
484
518
490
541
584
516
502
553
508
445
462
441
369
381
405
343
334
398
380
355
420
436
391
427
465
408
400
446
407
365
412
409
353
382
416
363
358
414
386
358
409
403
336
349
363
284
260
308
287
269
347
376
335
371
411
357
349
396
355
312
359
359
310
345
379
321
317
373
348
331
395
396
339
363
384
321
314
363
328
295
354
363
323
373
429
392
401
453
413
363
396
394
364
429
495
473
502
531
413
309
334
325
270
298
331
285
304
385
375
366
441
454
409
439
456
381
358
391
345
318
385
396
356
395
424
364
357
406
372
342
400
403
361
414
465
430
450
520
501
495
575
590
547
584
608
543
536
579
530
496
557
565
533
595
647
604
615
668
620
576
617
599
540
575
603
541
539
584
540
510
565
560
516
565
606
557
569
626
589
561
609
598
543
579
605
551
562
617
582
555
617
618
574
620
654
594
596
641
593
552
594
580
532
575
604
545
549
597
552
525
585
576
522
558
586
540
560
624
598
597
682
704
674
724
742
656
609
589
484
415
444
433
406
482
554
543
598
700
713
735
832
841
807
873
877
729
639
620
522
455
482
466
430
496
555
531
568
630
562
497
498
422
327
336
343
285
299
365
348
350
430
447
430
499
545
493
503
540
473
426
457
420
355
388
408
357
388
470
466
480
570
589
571
637
672
613
616
651
588
550
588
550
484
515
523
459
467
512
468
447
503
490
442
478
501
451
476
539
508
503
572
566
531
586
615
565
588
646
607
593
653
638
588
630
647
587
606
664
628
618
692
694
674
747
787
739
757
807
762
735
782
749
686
718
728
668
689
740
693
676
735
716
664
707
718
646
647
679
618
582
618
581
527
569
586
527
540
581
528
503
549
518
461
491
490
420
423
460
409
397
454
434
392
444
476
459
522
614
603
632
733
685
555
540
529
461
467
504
454
437
494
477
440
494
518
470
495
541
484
457
498
466
421
476
499
458
495
552
508
491
536
499
445
484
488
426
441
480
429
419
482
472
453
530
573
541
579
629
577
557
602
568
516
558
567
511
535
580
525
508
559
532
491
548
566
513
528
551
480
450
492
458
417
471
495
461
506
572
540
546
617
601
568
625
634
575
593
623
555
527
574
550
516
574
592
547
584
639
603
609
679
661
621
669
672
609
630
668
613
595
644
610
566
617
626
572
600
638
579
560
604
562
510
548
542
476
494
527
467
458
510
479
446
510
530
487
515
549
490
476
523
482
435
469
461
405
434
479
436
436
499
476
451
514
535
518
596
685
678
734
862
836
752
790
819
797
839
884
832
831
891
863
823
871
865
798
815
840
769
745
779
724
660
686
661
579
580
593
517
491
524
471
415
449
433
360
371
395
333
322
372
336
301
358
366
326
371
421
383
388
442
407
358
400
392
331
357
388
333
334
395
372
348
411
421
371
398
421
348
324
362
317
279
336
352
319
371
423
389
406
470
431
390
434
424
362
382
404
340
328
368
319
279
335
344
304
354
399
363
375
427
382
342
389
382
325
357
394
347
360
431
412
392
459
470
429
463
491
434
435
487
448
413
460
450
398
438
481
444
465
539
526
513
578
581
539
585
626
575
572
613
565
523
567
551
486
516
546
494
507
566
533
511
577
582
538
583
635
620
675
771
776
799
870
807
685
690
714
647
643
690
646
612
662
652
598
637
662
596
594
638
589
552
598
581
520
551
576
517
517
562
515
482
533
517
463
500
527
472
480
527
487
460
509
493
441
487
530
488
509
573
546
533
604
610
573
624
658
605
610
657
614
589
646
637
599
662
712
665
675
720
674
654
716
712
670
716
749
697
707
756
703
662
706
689
638
683
710
652
659
704
651
615
659
633
567
598
613
548
551
592
537
498
538
511
451
480
487
421
421
461
411
371
382
316
261
340
388
329
332
377
340
336
412
409
363
403
422
367
379
422
373
349
405
402
368
420
451
405
424
473
427
399
446
423
369
399
409
345
348
387
335
314
378
390
389
475
542
531
600
657
540
452
478
455
407
442
453
395
413
463
414
394
450
439
403
455
488
445
469
520
467
434
469
432
372
410
433
389
415
477
444
432
492
478
436
481
499
446
464
510
462
447
509
501
468
526
563
527
560
620
584
576
638
621
578
628
648
594
612
654
593
560
597
549
484
516
527
471
491
535
484
464
515
488
441
486
505
455
481
528
476
459
513
492
450
499
515
460
478
520
463
439
486
457
415
462
480
437
469
525
481
469
519
489
441
483
493
436
452
491
436
416
468
448
411
464
486
439
466
510
455
432
469
423
369
416
435
391
419
464
416
404
461
448
423
485
511
469
506
552
493
472
519
482
436
483
503
475
538
622
607
646
763
736
621
611
606
546
549
559
482
454
488
443
393
437
446
395
421
468
423
414
470
448
416
477
497
451
483
528
475
466
523
499
462
506
510
454
483
531
490
491
553
533
502
562
580
534
569
614
559
550
609
582
541
588
595
545
579
626
575
568
625
594
549
590
580
505
512
537
477
472
535
513
475
527
537
488
523
568
520
519
580
557
525
580
583
524
549
581
527
520
571
546
514
566
565
506
534
575
534
547
617
597
562
619
623
563
583
607
542
532
580
543
505
554
548
491
522
563
514
516
574
540
497
541
531
462
479
508
453
455
519
489
454
512
522
480
526
576
533
539
598
564
520
561
550
489
512
544
495
513
613
631
649
757
830
822
822
802
728
729
781
728
663
689
667
594
609
629
564
556
601
557
514
555
535
465
486
508
443
439
490
453
420
472
465
406
431
453
391
384
434
400
364
416
416
368
407
446
404
416
474
445
417
465
458
407
442
475
427
435
493
458
424
470
457
397
425
453
395
397
454
426
404
466
470
426
464
498
445
450
503
465
437
494
497
454
499
537
485
491
548
512
483
536
530
480
513
540
486
494
544
501
469
520
510
458
497
527
471
474
522
479
449
504
500
451
494
532
488
504
566
538
520
592
595
554
599
631
579
585
632
583
557
619
622
585
636
673
628
647
709
674
645
694
675
609
633
645
567
556
592
537
503
558
569
569
660
734
721
785
862
768
671
690
663
591
601
600
522
514
552
495
462
513
499
446
482
507
452
459
505
456
425
476
466
424
470
501
450
461
507
458
427
478
468
431
492
537
492
498
533
474
445
506
508
480
543
582
539
563
610
553
516
560
540
496
549
584
540
555
600
551
517
553
517
447
470
481
425
435
483
441
424
485
476
434
483
510
456
464
510
472
462
530
525
480
522
537
472
472
507
453
426
480
468
426
465
483
427
435
471
420
402
456
430
371
397
389
307
299
339
300
289
355
355
326
380
406
344
347
392
354
348
420
417
388
446
476
428
451
504
466
457
518
501
460
505
519
461
476
526
490
495
605
653
676
791
882
871
858
838
753
729
783
755
688
712
715
653
673
724
680
677
749
743
710
771
800
754
782
841
806
801
866
846
794
832
842
777
792
829
775
760
823
812
778
832
847
793
811
856
804
784
839
814
762
798
800
729
729
763
706
684
733
699
640
668
658
577
558
526
403
356
418
399
342
363
356
303
341
400
361
355
415
395
356
406
422
367
387
428
379
352
392
362
317
363
378
328
358
404
359
352
410
387
339
377
382
324
348
398
361
361
424
401
360
407
418
360
379
417
367
359
414
386
341
382
387
339
377
432
396
399
466
447
420
473
485
432
454
492
436
422
472
443
399
438
436
375
402
469
476
523
643
686
708
772
725
603
596
620
557
532
572
531
485
526
522
461
484
515
450
434
479
445
406
453
457
401
432
474
420
406
454
421
381
430
434
382
412
451
408
412
479
460
429
479
478
418
443
477
426
427
489
468
440
491
493
438
461
495
441
437
490
456
411
450
440
373
386
414
354
344
398
371
341
397
408
362
392
430
379
377
433
407
380
438
441
394
430
474
431
431
487
460
432
490
490
433
460
489
433
432
485
454
424
481
487
438
473
513
469
473
528
493
457
505
502
443
463
489
432
435
495
468
440
491
484
429
459
487
434
434
487
451
415
467
464
410
443
478
430
438
501
484
488
580
617
598
673
736
642
570
583
535
498
545
534
479
516
558
519
535
592
555
522
572
560
496
517
538
477
480
536
502
478
541
542
487
516
541
480
482
532
492
460
507
498
448
487
528
485
503
568
541
517
575
576
532
570
601
545
546
595
546
503
544
528
472
510
547
506
524
584
540
497
533
510
448
481
512
459
463
514
471
448
515
524
491
548
589
538
552
612
582
564
631
636
597
641
660
574
546
571
511
477
541
553
529
592
633
573
561
577
500
443
473
458
421
479
525
481
489
527
469
432
489
497
475
538
573
508
489
506
441
406
465
475
454
523
571
524
522
543
477
439
495
500
471
538
608
591
629
700
683
674
690
607
521
567
602
549
556
598
549
520
575
568
522
559
558
469
449
472
416
392
463
477
462
533
578
526
529
560
492
453
504
497
458
508
533
474
476
512
461
442
508
515
498
564
600
551
562
604
548
520
576
565
529
585
616
563
573
610
553
527
578
560
516
562
579
515
517
550
496
474
536
528
492
551
583
537
557
605
559
541
597
581
538
583
599
532
534
571
516
492
552
546
514
573
600
548
562
603
546
512
554
526
467
496
499
433
443
488
444
433
502
500
466
521
546
496
513
548
501
491
559
545
497
532
537
469
476
514
462
445
508
501
474
530
549
494
513
552
500
478
533
530
513
595
645
636
714
750
634
569
617
600
549
587
597
538
555
595
540
517
565
531
477
514
520
454
469
512
466
458
521
507
475
532
551
495
512
546
486
462
506
477
439
490
503
457
486
539
497
494
559
541
505
557
569
510
528
566
513
499
561
548
521
574
588
534
552
584
519
492
532
497
452
499
514
460
482
523
474
468
531
519
491
546
562
510
532
567
505
482
527
495
453
502
514
458
479
521
473
471
533
510
476
530
541
484
505
540
482
464
510
478
438
487
495
447
480
528
486
485
546
524
490
543
551
493
516
552
498
485
535
500
461
518
534
486
516
560
512
508
567
541
499
544
544
484
504
540
487
480
531
500
460
504
507
467
530
607
597
643
773
768
669
654
629
552
550
548
460
435
478
444
406
459
463
406
433
474
425
420
472
445
407
457
462
411
438
468
411
400
447
414
378
431
436
384
408
454
415
425
493
478
453
512
522
474
505
539
483
479
535
509
482
545
559
515
550
592
547
551
611
577
536
578
566
502
523
551
494
492
547
517
484
540
545
498
537
584
540
548
614
595
569
624
627
574
609
651
607
617
681
652
625
690
705
668
714
765
723
727
784
750
710
754
740
671
691
717
654
649
699
660
620
669
665
600
622
650
593
591
637
589
540
571
545
473
487
505
441
439
490
457
428
478
473
424
463
504
455
458
505
458
418
460
452
397
427
460
406
404
458
427
402
462
467
422
462
496
441
450
531
527
528
617
665
639
618
572
486
485
534
487
447
496
487
434
465
490
428
424
468
427
397
455
453
405
444
478
426
433
490
457
430
490
488
437
469
493
431
429
477
445
422
485
495
464
518
563
519
534
595
562
537
594
590
537
576
603
550
563
621
593
576
639
631
574
598
604
524
508
538
485
454
511
511
472
517
549
498
509
563
522
499
557
546
493
528
546
481
482
529
487
465
522
517
471
512
539
486
499
555
521
502
562
548
495
527
538
468
466
505
457
432
489
486
446
494
528
476
495
552
511
489
545
535
486
520
534
469
473
518
477
457
515
508
467
511
538
485
508
574
548
535
593
574
518
550
560
492
493
532
485
460
510
495
450
494
522
481
508
572
562
588
686
712
703
780
779
629
567
590
538
509
557
538
491
531
548
489
496
535
480
447
485
456
398
429
440
380
391
434
393
373
425
407
359
402
420
363
375
415
366
343
398
387
349
403
434
392
409
457
417
398
454
449
414
470
503
453
467
516
466
440
493
478
440
489
510
451
455
484
417
380
427
413
381
439
479
445
476
534
494
473
524
506
467
521
548
501
524
569
518
492
540
520
481
537
569
523
547
593
540
513
561
538
496
548
571
522
539
571
504
467
506
474
432
487
519
479
509
566
526
511
564
539
492
537
550
493
502
537
481
463
520
506
473
533
563
519
545
597
556
548
612
600
558
600
612
551
560
587
520
491
538
515
477
531
554
507
537
586
536
525
593
597
582
667
714
703
740
726
598
545
591
562
510
552
559
502
515
547
491
471
514
479
425
455
451
381
397
436
388
375
433
417
386
439
452
387
398
433
385
377
435
415
376
428
442
394
418
459
409
399
459
439
406
458
467
412
435
479
432
427
487
469
430
476
483
428
449
478
419
403
453
424
381
431
444
393
422
470
431
434
501
485
457
516
533
484
510
553
506
503
564
540
501
549
554
496
522
563
516
522
595
592
573
640
663
615
644
680
620
609
662
628
582
628
628
568
594
639
595
594
660
647
623
685
697
642
665
695
633
618
667
634
593
643
651
603
638
687
643
650
725
713
680
733
737
673
685
710
642
616
653
605
551
594
594
537
559
590
537
529
584
573
571
660
698
678
754
790
658
571
585
536
481
512
507
454
483
518
464
459
518
483
436
475
467
404
423
447
385
378
431
405
378
436
443
396
429
465
414
412
465
434
401
456
463
416
453
499
458
465
533
518
499
560
566
517
545
569
502
491
538
504
476
532
537
493
529
561
505
502
552
509
464
507
500
444
469
497
438
438
493
466
445
510
525
491
539
584
544
563
636
615
595
656
658
609
644
676
617
620
686
667
647
717
729
684
723
754
693
686
729
680
641
693
695
647
686
721
668
679
745
722
692
742
729
672
699
709
632
620
653
591
539
580
565
497
515
532
468
459
504
468
443
506
511
465
494
510
440
428
465
417
379
421
411
356
391
424
368
372
428
395
367
422
426
400
472
538
516
557
660
626
529
517
482
424
447
458
391
393
442
410
391
446
443
393
427
451
395
401
453
420
401
465
468
426
469
503
452
458
503
456
424
466
452
400
434
462
416
437
506
486
478
550
553
513
560
591
536
542
587
542
515
571
564
517
560
591
536
539
583
540
514
564
541
476
498
510
447
452
500
458
435
491
483
438
479
506
454
469
522
481
454
506
495
450
487
509
458
473
523
483
461
513
497
453
501
531
481
498
551
508
477
527
518
473
513
532
471
487
544
504
479
521
496
451
505
546
493
503
550
514
502
561
529
427
384
318
196
177
237
233
266
392
442
427
469
473
410
418
455
403
373
420
401
352
392
416
368
395
471
463
480
578
603
586
661
720
681
644
601
506
474
523
497
445
489
519
472
495
544
494
469
516
496
451
496
522
469
490
548
508
491
552
536
485
529
558
509
525
568
521
502
563
558
518
566
593
552
579
634
591
576
633
620
578
630
649
587
606
660
616
600
655
632
577
608
611
538
531
550
479
441
481
452
396
424
427
362
369
401
349
329
383
362
317
361
383
340
370
422
392
394
466
461
429
481
503
455
475
522
482
474
547
543
516
580
613
567
588
632
576
555
603
578
529
569
576
507
509
535
475
450
491
458
402
438
441
379
395
436
390
386
459
461
442
507
536
495
529
580
536
524
582
566
530
589
615
568
596
646
599
586
642
620
587
665
712
684
735
827
793
724
711
655
600
630
615
530
526
547
481
458
504
473
427
471
482
431
451
489
436
420
472
448
403
452
465
410
430
470
425
422
484
463
420
475
503
467
492
529
479
470
524
497
458
511
530
482
507
556
525
534
599
576
535
588
605
560
596
648
602
588
636
604
555
601
605
539
555
589
525
501
546
519
483
540
558
507
532
567
506
494
552
532
501
552
554
494
513
548
496
489
545
514
464
497
481
409
423
452
395
383
431
397
353
395
393
335
360
402
358
353
409
379
338
389
403
354
385
431
390
398
470
463
451
530
560
535
596
671
646
658
733
722
697
762
782
738
773
817
769
762
817
784
742
786
774
694
702
741
705
721
798
792
794
850
782
642
627
640
560
523
552
505
458
498
493
428
452
480
430
421
464
431
392
444
447
399
432
468
412
403
451
421
381
425
427
373
402
433
378
374
428
395
367
424
433
387
424
467
425
434
495
474
452
518
533
496
536
581
529
525
571
523
468
496
480
424
448
476
424
423
478
448
418
474
484
438
471
511
464
472
532
503
479
547
566
527
574
626
587
593
649
620
592
650
652
600
633
665
609
608
657
619
582
637
631
573
604
638
578
573
623
587
555
608
609
559
600
637
586
593
652
623
596
655
653
599
630
658
594
587
631
590
557
612
608
546
569
589
518
507
543
491
448
484
469
410
436
464
409
409
458
420
386
447
473
461
541
623
619
676
722
616
533
575
573
515
540
562
504
503
550
508
471
514
503
447
469
486
425
423
471
430
396
447
438
384
416
440
384
389
441
408
386
448
452
407
446
486
442
455
514
484
466
529
534
495
546
584
544
567
626
589
563
619
612
557
586
603
537
530
569
516
475
516
497
435
463
484
421
420
463
420
392
446
436
387
427
459
411
421
471
434
410
468
469
422
459
487
435
441
492
457
439
499
497
452
491
523
476
485
535
497
472
522
512
467
514
545
493
505
560
521
501
563
562
519
562
588
526
528
573
519
488
540
523
471
509
538
491
507
558
511
486
537
517
455
487
503
441
446
496
453
427
482
472
426
468
493
440
459
540
537
552
654
698
685
692
644
546
545
590
538
502
543
521
465
497
510
445
453
496
447
424
478
468
426
470
494
438
450
498
452
427
479
467
426
468
488
439
460
515
478
465
528
519
477
525
552
506
530
587
551
541
603
590
543
587
603
538
541
574
513
478
521
496
445
482
495
427
429
466
417
392
440
422
374
415
435
385
410
465
429
422
489
480
441
492
521
476
502
555
514
501
562
549
508
555
576
522
538
582
528
503
554
531
482
521
532
470
478
518
466
448
501
481
438
487
509
456
476
525
481
469
531
516
473
523
546
497
521
575
537
523
586
577
548
603
621
560
573
611
554
530
576
542
488
528
542
483
493
532
480
460
508
483
439
494
541
521
583
674
683
709
733
640
561
603
612
543
550
586
532
514
565
538
490
529
535
473
484
522
473
457
508
487
446
489
499
445
464
504
453
436
489
467
426
476
493
445
472
523
482
479
536
515
481
537
560
515
544
595
552
545
605
587
550
602
608
546
560
593
535
516
561
527
479
519
520
460
476
513
460
444
496
470
432
486
504
451
477
524
480
474
531
508
471
520
530
476
499
539
489
482
538
512
473
522
531
476
498
535
476
462
512
480
438
483
490
438
461
501
455
452
513
491
462
517
523
472
499
537
482
471
523
494
456
508
518
469
503
552
512
513
568
532
485
528
524
457
465
490
433
426
481
456
423
476
486
438
464
502
461
481
573
588
593
698
768
715
684
678
615
601
643
597
547
589
584
524
545
572
509
492
536
500
458
503
504
452
479
515
463
459
513
481
441
489
489
433
455
491
440
438
495
473
450
513
529
485
521
566
519
520
582
557
526
587
594
540
573
612
555
551
604
569
526
568
563
500
515
533
466
450
488
442
395
436
430
374
400
445
409
421
490
472
450
513
523
479
519
563
519
528
594
573
550
616
628
583
614
648
594
592
640
599
556
597
589
534
565
600
548
548
602
568
534
586
581
525
554
585
527
524
570
530
492
541
538
484
516
549
495
503
566
538
510
565
562
513
550
581
522
513
557
515
479
528
527
477
515
553
502
505
555
518
483
533
526
468
498
543
528
580
688
716
752
854
817
684
672
692
630
616
649
596
551
593
577
515
540
560
499
496
543
499
459
500
490
433
459
483
427
430
486
452
421
475
473
420
455
493
452
465
521
490
472
535
535
490
533
572
531
548
607
574
545
599
593
545
579
600
531
523
562
514
480
531
519
462
493
518
458
458
505
463
429
475
461
405
438
469
420
426
476
438
408
455
443
392
421
437
373
368
411
368
339
392
385
336
376
403
349
356
408
370
344
398
390
342
381
408
355
364
419
386
364
422
419
372
410
438
385
395
445
406
381
434
426
382
428
464
422
438
492
455
433
490
483
436
472
497
443
450
500
461
443
504
502
461
509
543
498
540
626
622
638
742
766
682
649
634
571
580
622
570
541
593
575
520
549
562
497
497
538
490
465
519
507
462
505
530
473
480
523
473
442
487
471
421
458
479
427
438
488
447
423
476
465
421
461
488
441
463
523
492
480
545
540
497
542
562
504
514
561
516
496
554
542
499
543
562
504
515
559
511
486
535
517
469
511
536
483
506
559
521
508
567
556
511
556
581
533
551
605
571
562
629
628
593
645
670
612
624
664
608
576
620
591
530
560
565
494
493
522
462
435
483
461
414
457
477
420
431
476
432
415
471
454
412
459
496
467
502
564
532
523
584
575
531
576
592
530
542
586
542
527
584
568
524
569
582
521
533
579
548
552
639
658
661
770
803
702
667
690
630
599
636
597
537
575
582
518
529
569
519
499
549
525
476
513
520
460
470
508
457
440
496
476
434
475
486
431
447
484
437
422
477
464
428
480
500
449
471
518
471
457
512
491
448
488
501
447
467
515
475
465
522
508
473
517
526
468
482
521
470
458
515
494
451
495
509
455
477
527
484
476
534
512
467
504
507
446
462
500
457
450
504
474
424
454
454
394
408
449
401
390
446
430
396
451
471
425
457
508
469
466
535
536
516
583
617
585
634
703
675
683
754
743
712
771
791
741
768
812
762
751
813
796
750
787
778
704
705
717
638
599
630
583
524
553
549
482
495
531
476
463
514
493
471
559
613
604
683
786
754
691
678
624
575
615
605
535
547
580
521
500
539
501
451
486
475
404
414
446
394
387
446
428
400
459
474
424
450
487
434
426
480
453
412
465
481
437
469
516
474
475
536
514
482
539
554
506
532
573
530
532
594
569
534
587
594
538
561
592
532
516
559
520
477
517
506
442
458
481
419
405
450
417
378
428
437
385
410
444
391
390
444
412
379
437
451
408
445
490
449
455
518
495
464
521
527
476
507
545
489
483
538
508
471
518
517
459
482
513
455
446
497
463
424
475
480
429
459
500
452
453
514
491
462
518
528
484
524
571
530
542
614
602
587
659
673
629
667
711
661
655
708
687
690
785
828
806
876
941
834
736
734
673
611
629
593
516
530
549
479
464
503
459
416
457
450
393
425
462
412
420
482
458
431
487
492
445
481
520
465
462
513
476
444
496
494
441
473
508
455
455
507
477
448
502
500
453
489
523
468
471
529
502
469
523
518
463
492
518
462
463
516
482
455
511
513
469
508
546
496
509
571
540
519
580
585
543
588
628
583
597
660
630
604
661
662
614
652
688
643
659
719
681
649
704
698
638
658
671
594
579
612
550
495
526
501
432
446
462
399
403
455
431
417
492
507
470
514
551
501
509
569
539
511
569
569
522
563
585
510
506
544
486
447
492
468
399
421
435
376
383
422
363
313
372
390
369
434
490
461
491
514
389
299
340
333
280
310
321
252
251
297
256
228
277
269
219
253
280
232
248
307
276
258
318
316
267
300
327
271
279
326
288
277
356
367
333
395
437
393
403
459
428
405
461
455
420
476
520
486
508
569
539
522
598
604
579
651
717
714
801
921
922
915
970
941
858
878
885
806
809
839
773
743
809
818
772
805
831
773
791
861
844
830
864
826
721
692
642
521
471
475
403
355
392
367
314
351
351
288
326
419
428
438
525
541
501
544
541
435
381
368
276
217
245
218
168
232
290
278
355
471
484
484
533
510
469
514
528
458
463
489
415
367
412
403
380
455
520
496
538
602
565
578
700
738
700
735
764
680
622
620
562
540
567
506
435
474
521
499
559
660
667
704
819
836
784
801
785
667
593
532
383
285
296
273
250
339
403
390
430
489
449
440
511
512
486
555
609
581
634
723
718
727
816
819
773
794
773
664
618
579
449
380
420
404
371
424
426
350
354
406
390
416
503
507
484
547
544
458
461
475
395
351
388
366
328
390
411
355
373
406
358
363
451
470
450
499
498
418
410
422
331
290
343
335
326
429
513
534
628
738
745
765
864
862
799
798
757
630
584
584
502
466
508
506
504
597
641
598
611
621
530
478
503
463
415
477
505
468
503
552
492
463
514
489
465
561
651
658
675
681
591
514
493
459
454
536
561
489
494
517
443
404
439
399
353
422
460
419
446
497
457
472
563
567
539
607
639
616
679
752
729
749
842
850
834
911
930
872
882
908
840
836
884
852
799
822
799
695
661
649
553
523
562
521
470
505
500
418
404
397
302
262
304
281
257
324
357
337
405
500
518
588
723
760
736
776
754
641
596
587
490
461
496
462
436
509
548
531
616
731
746
780
848
800
709
690
613
472
417
372
273
262
335
326
307
379
420
397
436
483
434
417
449
395
338
376
364
285
291
328
287
281
342
332
304
369
382
322
344
385
341
352
449
503
540
615
599
515
488
445
346
349
435
427
383
416
411
351
376
413
367
379
455
465
482
605
683
686
744
776
677
607
593
503
430
461
455
408
451
512
494
538
644
675
701
810
828
740
715
695
579
516
528
472
431
492
518
493
557
620
585
590
643
593
534
554
511
421
431
448
374
380
461
460
463
561
597
564
609
642
562
514
508
419
334
346
324
263
293
342
313
347
443
447
446
520
516
427
389
344
220
171
213
195
177
274
344
364
464
568
568
610
711
700
662
690
655
549
526
508
414
404
473
474
489
593
650
662
757
829
785
780
809
731
658
707
722
663
659
656
581
537
530
492
494
592
604
545
558
563
473
453
493
448
413
461
439
368
378
382
305
288
327
289
261
330
361
352
430
496
466
480
531
475
418
433
379
290
309
346
314
350
461
501
548
701
801
844
952
998
968
956
974
894
821
834
785
685
693
702
627
626
688
652
634
711
714
653
669
670
595
586
624
558
490
489
426
336
355
371
320
347
422
406
409
494
502
470
528
574
523
523
557
493
453
501
492
451
493
544
534
607
731
745
756
838
845
790
816
822
729
689
688
605
542
568
530
449
460
473
417
431
488
471
499
627
661
599
611
599
475
404
423
390
384
444
442
401
440
459
400
408
455
412
384
443
444
417
485
545
515
548
609
570
545
599
579
510
534
549
493
514
576
546
536
607
605
557
595
612
544
537
566
505
468
508
470
415
457
481
427
443
496
454
420
470
449
383
404
410
342
345
389
348
333
393
390
357
411
439
387
399
446
401
390
459
455
419
481
535
510
540
586
514
461
494
471
423
463
479
411
413
441
382
358
417
409
395
496
581
557
587
637
578
538
571
527
455
473
467
394
402
454
414
393
451
445
410
466
514
503
594
710
679
628
661
606
475
449
445
392
402
438
394
390
468
473
442
491
506
435
440
470
415
386
437
414
362
403
414
363
378
467
477
505
584
578
537
584
603
533
530
564
520
515
598
613
605
694
758
764
854
979
996
1001
1003
1004
1004
1004
1004
1003
1003
1003
997
949
948
902
840
870
881
826
836
859
780
734
762
699
601
596
569
476
472
510
467
455
519
524
507
566
565
495
512
549
476
437
466
420
359
401
424
383
422
500
514
565
665
666
626
656
642
559
556
586
528
504
546
515
477
549
612
629
751
911
960
996
1002
1000
994
993
917
783
769
754
605
509
510
447
369
396
419
383
426
485
431
391
398
326
240
257
246
181
208
260
216
213
290
295
284
361
407
387
434
480
411
355
360
300
235
279
304
268
314
372
336
356
447
438
398
442
440
371
377
398
317
272
303
271
251
324
359
335
388
449
404
395
447
413
361
395
401
353
379
425
385
389
456
449
436
517
576
584
659
748
744
770
856
851
816
876
893
834
842
867
795
772
809
764
713
772
789
723
718
722
632
576
578
503
417
421
389
312
325
364
314
301
352
326
291
348
347
277
310
390
367
355
403
390
339
313
235
146
177
237
203
210
283
276
246
292
296
238
264
301
252
244
303
284
252
308
317
263
286
328
279
269
328
307
274
326
327
264
287
327
288
297
366
347
316
370
378
334
372
419
367
354
401
365
319
359
347
274
288
325
283
286
344
308
269
332
361
327
358
383
311
291
349
334
316
375
373
311
345
395
358
371
438
414
382
436
445
399
426
453
391
385
441
405
364
411
413
370
420
481
447
458
515
482
456
530
545
486
492
498
426
421
486
469
447
501
499
445
474
509
450
444
497
463
440
505
521
494
555
628
608
660
768
719
622
635
622
563
582
600
535
529
576
531
491
543
537
479
512
542
489
497
561
539
519
581
578
515
536
569
519
523
579
542
510
568
579
544
591
622
547
528
580
565
571
664
682
622
628
625
550
554
625
611
596
657
654
606
650
687
620
595
616
552
499
539
530
476
510
548
504
518
582
551
514
564
566
525
571
600
525
503
537
490
460
517
519
476
529
589
561
581
638
592
535
562
545
501
560
625
602
627
681
625
568
596
571
519
564
600
561
576
622
569
526
572
572
545
617
686
660
675
725
674
623
653
623
558
592
626
567
554
571
494
441
492
521
541
672
800
822
898
978
866
708
671
622
554
587
623
572
565
593
519
461
499
490
453
513
563
521
523
549
469
406
434
423
384
445
504
472
482
519
453
404
445
441
410
470
515
472
482
524
459
414
465
470
446
514
564
518
516
545
481
438
485
487
459
519
564
522
532
571
509
462
498
481
437
485
521
466
465
502
450
413
463
463
434
499
553
516
541
601
563
542
602
600
557
605
630
561
554
585
524
486
538
533
496
550
588
544
556
595
543
511
555
540
494
540
570
520
532
572
511
470
518
518
504
579
619
553
527
538
479
464
535
536
487
519
540
484
491
534
488
470
537
537
506
561
587
527
531
567
508
472
525
521
490
546
571
496
480
501
452
451
545
585
580
654
697
667
703
712
594
542
624
652
630
679
681
585
554
563
498
470
522
511
468
504
503
421
408
439
395
387
464
471
436
479
485
407
402
441
399
390
460
455
409
444
453
387
399
463
452
466
560
572
534
570
567
485
482
529
503
519
619
644
625
679
697
629
634
672
612
581
630
603
545
574
573
497
499
538
495
487
560
557
521
571
595
536
550
595
548
528
574
542
474
487
472
396
405
461
430
424
487
470
424
463
472
406
412
453
404
387
444
428
386
434
457
409
430
483
442
426
478
452
404
444
457
402
419
461
414
396
450
429
380
424
446
404
439
499
463
457
516
492
445
486
495
437
455
501
452
435
495
487
455
514
534
486
518
571
529
521
584
565
516
552
552
481
492
540
503
500
565
543
495
539
569
556
625
723
723
760
845
779
648
627
616
565
581
613
555
535
582
550
502
547
558
496
508
546
497
487
545
519
474
519
533
488
516
561
511
493
538
504
455
492
494
437
467
532
506
514
584
568
529
584
604
560
596
651
603
584
627
583
517
543
542
483
508
555
512
503
557
524
472
503
492
422
437
478
426
411
463
439
397
449
468
425
463
520
485
483
541
515
469
513
523
472
502
552
506
494
541
505
456
498
505
456
487
534
492
487
540
505
454
493
495
440
470
521
479
473
525
490
441
480
484
430
458
504
465
466
526
501
462
512
521
464
488
531
481
476
529
498
459
512
526
478
509
562
525
533
597
570
524
566
559
489
505
537
484
477
538
524
502
569
593
549
579
617
558
542
601
595
588
680
731
735
785
774
649
607
656
624
573
617
622
563
581
607
539
514
547
495
439
476
474
419
446
486
436
429
482
454
414
459
460
403
426
454
397
393
453
434
406
470
491
451
489
540
496
495
553
527
494
539
539
484
514
557
515
523
591
572
544
600
603
543
564
592
530
515
560
519
474
511
506
449
474
513
468
476
547
525
498
559
571
524
553
587
529
527
582
549
510
564
566
517
558
607
564
565
622
591
548
589
579
511
532
565
509
498
536
488
439
477
471
421
461
509
470
478
538
496
449
493
490
439
475
520
473
470
512
465
421
465
469
430
475
525
485
489
541
502
465
518
526
486
529
572
522
506
529
471
422
467
471
433
482
539
505
514
571
540
507
570
584
542
578
611
546
530
569
520
472
516
516
476
525
575
532
539
594
556
523
579
588
567
640
713
683
711
791
722
610
608
591
531
553
569
497
484
528
488
453
505
493
432
458
486
432
428
468
424
387
434
425
368
400
432
375
376
434
406
382
442
445
402
442
480
435
446
506
479
460
515
510
462
499
535
490
506
564
532
505
566
576
541
591
637
588
585
629
577
525
556
530
464
494
526
472
477
533
503
477
536
540
494
534
575
532
545
605
572
541
590
580
525
560
591
535
542
599
554
519
573
566
511
544
570
513
516
566
522
485
525
507
445
470
491
438
448
498
463
441
497
495
445
480
511
463
482
547
524
509
573
571
522
561
590
535
547
600
570
551
612
611
566
613
654
613
634
700
674
655
716
710
653
681
699
631
629
679
643
618
675
673
619
651
671
609
617
670
627
589
627
603
537
562
578
512
509
550
503
470
518
498
434
461
481
423
431
482
449
448
538
566
549
626
689
606
541
543
492
472
525
507
447
476
498
439
443
493
453
432
489
481
431
470
495
443
457
517
484
465
521
504
445
473
488
426
429
477
448
437
495
485
440
479
501
442
447
498
465
450
513
508
464
502
525
469
481
528
487
473
539
535
485
520
534
469
470
511
461
432
487
479
423
459
486
437
456
516
488
481
550
548
503
545
565
501
508
552
505
484
540
532
488
532
553
500
520
578
545
532
595
584
534
571
586
521
524
566
520
495
540
511
455
490
506
450
464
521
488
473
527
512
464
507
531
476
487
525
471
443
494
477
425
461
479
423
439
489
451
445
522
531
501
553
579
523
528
564
505
475
527
509
461
503
523
469
483
535
495
482
547
544
514
572
598
539
545
578
515
477
517
492
459
541
598
578
633
727
696
619
604
559
509
547
553
478
475
508
453
426
469
444
398
438
453
394
405
448
406
395
459
449
411
459
482
429
440
482
433
415
474
463
425
473
496
443
462
512
478
473
544
541
509
564
591
540
560
608
565
553
622
612
562
604
614
548
555
588
532
503
547
517
459
489
493
434
444
482
436
418
472
454
410
450
462
406
424
475
439
435
500
487
452
496
513
456
470
512
464
446
498
475
430
468
477
424
447
499
459
453
516
502
459
500
507
448
462
504
459
440
490
467
422
466
481
433
462
520
482
475
532
510
462
496
498
433
446
488
444
437
500
489
453
504
521
465
486
535
491
476
528
496
447
482
483
422
444
498
465
467
530
510
468
514
530
478
494
527
473
454
500
471
426
472
486
437
469
529
505
537
647
678
680
778
842
763
712
708
640
612
653
616
567
614
626
570
592
633
577
553
595
560
507
544
546
482
499
540
483
465
520
496
456
506
519
464
484
521
463
443
492
470
438
493
510
468
505
555
511
510
573
556
524
583
603
557
588
632
580
564
613
578
531
581
598
547
572
604
541
516
559
525
479
524
534
482
509
554
508
504
558
536
506
567
587
540
571
613
556
537
584
555
514
560
565
513
535
569
514
503
554
528
494
550
564
513
537
568
501
478
520
482
441
489
499
447
473
512
461
452
510
486
454
512
529
482
509
546
491
481
532
501
461
511
522
472
499
540
491
484
537
511
480
533
541
485
507
540
482
466
512
477
441
497
510
461
489
525
471
468
522
493
455
499
498
436
450
478
427
424
484
462
435
495
516
498
574
659
650
697
815
787
684
688
683
626
645
668
606
598
655
629
599
660
669
609
632
667
614
613
675
652
620
671
676
621
650
685
628
616
666
628
583
623
613
545
563
589
529
522
575
545
512
565
570
522
556
591
535
528
578
540
498
543
534
474
497
527
467
456
500
463
422
463
455
395
419
448
393
386
435
403
368
420
425
379
417
461
419
429
495
468
439
497
502
450
479
510
454
449
495
458
426
483
488
437
469
507
460
461
509
473
438
486
482
426
450
480
427
423
475
445
417
474
480
435
474
511
453
452
507
474
444
497
497
447
477
507
452
451
502
470
443
504
514
472
515
549
489
492
551
522
493
548
547
489
518
548
490
487
537
504
480
547
560
517
557
590
529
522
564
530
523
613
651
639
725
798
712
638
648
606
581
633
620
558
583
602
531
515
550
500
461
506
496
444
478
509
454
454
497
457
429
485
483
433
462
487
428
425
475
443
421
485
498
463
514
551
497
501
554
518
493
553
554
509
547
578
524
527
580
547
524
579
572
519
548
563
488
469
500
446
404
448
442
394
429
459
408
405
453
420
401
465
470
428
468
501
443
441
488
451
428
488
487
438
476
505
451
457
509
474
446
503
495
443
477
503
442
444
498
459
429
482
476
428
464
493
438
444
497
462
440
498
494
448
484
509
454
462
514
474
445
497
490
443
483
516
469
482
544
516
505
570
565
514
547
570
510
511
554
503
465
507
491
440
477
508
458
475
538
510
491
556
571
555
626
681
659
711
757
647
560
599
583
526
558
578
521
531
583
541
510
558
538
476
500
515
450
454
503
461
440
500
497
457
504
534
478
485
531
484
456
504
485
434
477
513
467
485
544
510
493
557
556
518
565
595
545
558
610
570
549
607
598
555
602
627
574
583
625
563
520
553
522
459
487
506
448
457
509
469
449
511
508
472
522
551
497
505
547
494
459
504
487
446
494
528
486
514
576
542
526
582
571
524
564
583
522
524
559
503
469
509
489
445
492
523
477
494
546
502
476
526
507
457
494
513
457
468
509
459
434
485
473
430
475
500
445
456
502
459
441
500
490
449
497
525
472
480
520
473
458
521
512
468
506
522
462
471
517
467
448
510
502
467
519
547
494
503
539
479
444
495
497
491
580
638
621
692
760
663
588
634
629
581
616
621
547
540
565
501
468
508
481
434
478
501
446
458
501
456
442
504
495
453
496
508
443
443
474
418
390
445
434
398
452
482
440
465
520
486
482
555
557
533
596
630
581
601
650
613
609
673
667
636
696
726
677
697
743
690
663
709
684
628
666
678
617
630
675
626
602
660
647
609
660
678
621
632
672
616
587
635
608
558
600
614
553
567
608
554
524
568
540
488
525
532
467
475
510
453
426
473
450
405
449
463
407
422
465
416
396
447
424
378
429
452
402
422
469
427
415
474
455
415
460
473
418
436
482
437
429
489
472
437
487
509
466
495
549
504
488
538
512
467
511
522
465
480
523
478
468
535
524
488
542
563
510
530
583
565
586
680
699
706
777
741
615
607
652
606
584
632
611
567
610
617
550
552
577
508
475
515
480
432
476
492
442
468
515
469
459
504
474
431
477
487
430
446
481
428
417
476
459
426
486
516
479
512
561
514
500
554
524
478
529
544
494
522
570
524
517
578
557
517
563
569
504
516
548
488
466
510
480
439
489
499
445
470
514
469
464
528
510
472
521
536
488
512
549
494
480
535
511
477
534
549
498
526
575
528
517
568
536
492
543
554
496
512
540
479
465
512
475
432
481
497
452
486
537
491
488
547
519
475
517
517
457
471
502
445
427
477
453
420
480
506
467
504
557
510
501
552
519
473
510
507
446
461
493
436
421
471
443
409
466
484
447
501
585
574
605
702
719
670
642
573
483
499
527
461
442
490
462
427
477
483
429
450
480
419
403
451
422
387
441
454
407
437
483
434
424
476
447
408
458
467
420
449
487
441
441
504
488
463
525
542
498
533
573
523
520
577
551
523
578
587
539
569
606
550
541
593
563
521
564
557
492
504
525
462
449
497
462
427
481
489
441
471
510
460
459
514
487
459
517
524
476
503
536
481
476
533
501
464
512
514
463
496
537
490
492
553
530
500
557
562
508
533
565
509
504
556
524
495
549
553
498
529
566
516
519
576
549
519
573
572
513
536
560
497
489
541
508
471
516
516
470
514
564
521
524
577
542
501
541
528
460
472
493
431
424
475
444
419
485
503
464
505
553
525
566
657
660
658
758
777
661
608
599
532
527
574
537
507
566
570
526
565
599
540
529
568
513
460
491
472
411
439
477
436
450
515
494
471
529
528
471
495
509
442
432
480
442
413
471
483
447
499
551
516
534
598
567
535
583
573
512
539
570
519
526
586
553
522
577
571
508
532
555
492
484
526
482
444
485
471
413
444
478
431
444
510
491
469
529
533
483
518
549
494
495
546
506
472
521
513
458
490
526
484
501
569
543
519
574
562
497
515
529
461
454
499
462
435
496
493
449
494
534
491
502
559
522
490
539
527
466
489
514
465
478
538
507
480
533
530
486
530
565
515
524
581
546
519
568
559
505
538
567
516
531
610
616
640
746
793
810
869
848
730
710
754
699
645
677
652
587
614
638
580
583
622
559
516
559
541
482
506
520
455
452
498
457
426
469
450
392
425
451
390
392
441
405
383
442
446
410
460
500
454
470
526
487
459
507
491
436
470
498
448
456
509
471
442
495
486
437
469
487
424
424
469
427
403
460
449
403
443
473
420
426
474
433
404
459
456
416
466
504
462
487
549
511
492
548
539
488
526
553
499
505
555
514
492
553
543
493
532
561
503
507
554
511
484
533
518
467
504
526
471
487
544
509
491
548
541
502
545
571
515
522
572
534
511
560
536
479
513
532
479
493
543
501
470
498
441
342
331
323
271
307
395
388
391
484
522
525
612
689
692
707
691
586
532
567
527
446
460
472
425
449
507
470
450
499
483
437
483
508
453
464
510
464
439
485
461
408
450
477
434
460
522
490
477
533
519
471
512
530
473
484
529
482
462
525
522
489
553
595
557
588
646
604
578
627
607
558
600
617
561
574
618
565
534
578
551
497
535
553
498
512
554
502
475
523
504
451
495
525
479
505
563
527
513
568
549
497
533
546
485
493
531
480
456
508
495
459
515
548
506
532
584
539
516
560
534
479
516
533
483
502
552
516
507
570
561
527
583
614
570
594
641
591
566
614
590
540
584
607
559
583
640
607
601
668
658
618
672
697
642
648
680
619
587
634
614
566
604
623
571
594
645
602
586
643
621
570
608
615
552
587
661
646
659
761
787
715
686
656
589
601
630
560
524
561
524
463
490
483
408
406
437
388
376
435
423
384
428
444
394
416
466
420
402
456
436
391
432
444
391
415
470
441
445
515
507
468
515
535
481
505
556
513
505
570
567
536
587
604
559
595
656
619
615
670
635
575
604
596
519
518
547
492
481
544
524
480
526
540
487
513
563
519
509
565
538
485
520
525
465
485
534
491
482
540
516
470
511
516
456
474
521
476
465
519
488
441
483
489
427
442
488
444
435
494
473
431
473
481
427
450
496
448
437
497
483
445
488
499
447
456
478
426
429
500
485
445
489
497
447
478
525
474
462
519
500
466
517
525
464
483
525
474
455
499
466
428
481
501
452
478
523
472
453
484
429
358
400
442
437
514
618
626
612
601
523
466
519
528
466
484
522
470
459
505
469
419
457
459
403
426
469
428
427
483
462
431
488
504
451
469
497
429
406
455
435
411
469
491
451
493
545
505
509
575
561
527
581
590
534
553
587
534
530
595
580
557
622
644
597
622
658
592
557
586
536
476
509
503
444
466
503
453
446
504
481
450
505
518
468
496
533
478
465
509
477
439
494
510
467
505
552
506
503
560
536
499
544
544
484
500
526
464
452
499
464
429
482
493
449
484
529
482
481
539
508
466
508
502
441
461
495
442
440
504
482
450
508
518
469
498
539
487
485
544
519
486
538
541
485
513
551
503
505
566
540
511
575
588
534
555
580
517
505
556
525
489
542
549
499
530
567
511
502
553
521
475
516
519
485
546
623
609
649
761
743
647
637
616
555
570
587
516
498
539
498
455
496
492
443
480
531
494
501
563
539
510
565
564
503
523
545
476
454
489
444
401
444
440
388
418
453
402
401
455
427
387
428
422
365
387
415
362
362
419
394
371
435
450
407
444
487
438
435
484
443
402
443
436
378
403
434
383
385
447
427
405
468
479
435
471
509
458
457
516
487
451
506
510
466
504
547
506
515
577
551
524
581
585
537
568
598
540
540
593
553
515
568
570
521
556
592
542
545
602
573
542
596
595
544
575
601
542
540
593
560
534
597
606
562
603
640
585
587
640
604
567
617
616
557
580
609
551
554
609
577
550
610
613
562
596
624
562
554
597
554
518
568
561
518
556
588
534
538
598
569
544
600
590
531
555
579
518
514
560
522
493
547
543
491
527
556
499
501
553
516
488
566
595
578
645
715
710
701
688
601
559
611
584
511
539
569
506
488
514
463
424
474
475
426
458
487
436
446
515
493
470
520
504
440
459
484
439
456
519
486
460
508
496
448
491
532
492
517
588
566
546
605
606
555
590
620
568
577
635
608
586
650
652
609
654
683
621
625
677
640
613
663
646
582
608
631
576
588
651
624
604
662
657
604
637
666
614
624
680
642
621
685
680
632
670
698
642
642
686
641
606
654
638
578
606
622
554
548
584
534
495
537
520
460
486
506
447
450
503
470
447
499
484
429
460
483
425
428
474
434
409
467
470
423
456
481
427
434
481
439
413
467
476
441
476
502
449
455
502
463
437
487
474
426
465
491
433
441
490
453
436
505
511
476
521
543
481
484
525
477
446
491
477
429
468
495
444
456
506
467
449
510
504
467
540
602
580
620
710
693
624
599
546
489
527
543
477
478
525
479
457
509
492
438
471
494
435
436
478
433
408
468
469
436
477
495
439
447
494
452
426
477
467
426
471
502
449
461
515
481
465
527
523
484
530
556
505
519
565
514
480
524
511
465
504
518
439
420
437
379
357
421
422
388
436
461
400
404
447
405
382
436
426
382
426
453
399
408
458
425
412
473
469
429
475
502
452
465
508
453
424
476
469
431
473
494
436
440
485
449
435
496
490
450
496
521
464
470
511
462
437
483
466
426
478
509
463
484
537
499
481
535
517
464
499
510
445
452
493
449
432
493
490
461
518
542
489
505
551
503
480
536
521
475
512
524
461
467
512
468
453
514
511
478
535
562
506
519
560
502
469
514
493
459
536
596
585
648
759
760
711
702
654
605
645
651
575
570
601
539
506
551
526
473
510
525
472
483
527
482
464
522
509
467
514
534
477
489
525
470
447
498
481
440
494
523
474
498
555
519
510
573
563
522
576
607
560
585
635
587
568
630
618
571
613
630
571
579
613
555
522
559
522
463
495
499
438
441
471
415
391
435
416
377
430
458
413
435
482
437
417
466
447
405
452
474
428
449
492
446
427
477
455
410
453
472
420
438
484
438
419
471
454
412
455
476
428
448
492
441
423
477
458
419
474
501
456
482
534
492
476
526
506
467
516
538
489
515
564
522
510
569
551
513
570
597
545
564
610
563
546
599
582
544
600
626
578
603
655
612
601
656
629
587
638
655
602
619
658
597
568
609
577
528
570
582
529
550
592
537
525
604
616
617
709
779
779
784
750
637
593
632
586
519
551
556
493
503
540
478
449
492
467
425
473
487
436
456
498
447
427
474
445
403
446
457
400
412
449
408
403
460
436
398
458
484
445
477
524
475
463
522
506
475
534
553
499
518
556
496
485
552
543
512
568
576
511
520
547
482
454
494
464
424
474
488
432
451
495
449
437
491
471
439
494
517
470
497
541
492
478
530
509
470
520
539
488
510
550
501
492
547
526
495
556
576
526
549
589
534
519
573
549
513
567
584
537
569
620
579
573
631
611
577
636
657
614
649
700
658
649
709
688
650
705
719
671
704
754
709
703
758
735
702
757
771
719
747
785
723
703
752
717
669
709
705
636
647
676
614
591
631
591
538
577
574
505
517
539
465
437
475
439
404
485
532
517
587
682
658
593
565
494
445
485
476
408
420
454
401
386
434
404
362
412
420
367
395
438
387
378
431
408
379
440
461
416
441
474
417
404
451
422
383
434
449
410
448
497
450
449
513
495
469
520
532
486
521
560
491
466
511
490
463
515
515
456
480
525
485
481
528
492
447
485
479
418
439
473
416
403
451
419
380
434
453
418
461
514
470
463
513
486
458
516
528
477
498
530
469
453
492
453
414
460
470
433
480
540
506
511
568
530
481
521
520
464
485
516
463
462
522
497
464
511
513
456
485
534
496
500
561
533
493
537
534
473
502
538
480
471
527
498
470
532
545
506
540
576
522
516
567
529
484
523
515
453
475
506
452
449
504
474
436
483
485
447
505
572
545
567
649
634
554
525
485
434
479
520
467
461
508
470
431
474
465
409
435
466
409
402
455
426
395
449
459
416
454
499
457
462
520
488
444
488
487
433
464
500
452
453
512
489
465
528
541
502
548
595
552
560
619
583
546
596
595
538
568
604
548
546
600
567
531
580
575
510
531
553
486
477
525
485
451
502
503
455
486
518
466
466
520
489
458
512
518
474
513
554
508
513
566
529
496
548
544
490
522
555
502
502
555
521
490
545
546
495
527
561
509
502
551
518
487
542
546
500
540
581
535
541
597
566
533
585
584
525
549
578
519
515
564
529
499
553
554
507
542
577
535
546
611
583
551
594
573
503
518
534
469
461
504
465
433
485
482
430
462
493
439
437
489
471
468
548
573
555
639
680
563
498
526
487
446
479
465
408
439
468
417
414
459
421
389
440
435
386
421
452
402
411
469
442
415
462
452
401
443
478
414
409
460
429
407
469
476
433
474
517
475
494
566
545
524
582
578
519
544
576
531
548
613
584
558
612
605
550
581
605
546
549
601
559
523
567
547
482
509
537
482
488
544
514
495
557
547
493
528
559
503
508
563
533
507
559
551
498
533
560
506
515
572
539
513
574
572
524
561
588
529
530
576
528
493
544
535
482
520
550
499
508
563
529
503
558
549
497
532
560
507
516
566
524
492
539
528
476
512
544
492
502
561
530
508
565
562
519
565
601
547
550
597
552
520
573
564
507
539
564
511
519
572
537
513
571
561
509
543
575
547
592
688
685
703
800
762
626
609
619
556
548
583
532
495
537
515
451
473
484
418
415
460
416
388
439
430
382
417
439
387
395
443
406
381
435
423
369
404
432
381
394
453
423
404
465
465
425
470
505
459
470
522
487
466
525
523
481
528
561
513
525
581
547
525
581
569
514
546
562
495
491
530
485
464
527
528
494
546
583
539
553
604
565
547
611
615
577
625
664
624
651
719
688
667
728
722
671
703
717
650
648
685
633
597
641
613
553
585
598
531
530
570
518
488
537
517
468
501
517
457
462
508
464
443
499
491
448
484
505
449
457
501
456
434
490
480
444
492
519
467
479
529
495
484
552
548
499
528
540
476
478
516
465
438
491
483
440
482
508
458
476
531
493
474
537
547
536
616
676
660
716
759
637
546
582
571
520
549
561
500
510
565
527
505
553
530
468
493
504
444
452
497
449
432
499
497
454
493
514
463
480
531
489
469
524
511
465
510
539
494
509
562
531
522
581
564
523
578
610
559
573
621
577
558
616
603
555
593
608
545
549
579
502
450
475
440
386
431
463
423
445
495
449
426
478
464
417
458
479
426
432
463
408
377
427
413
376
431
461
411
424
471
434
423
486
475
430
473
499
452
468
517
471
447
495
475
428
468
489
437
454
507
468
451
510
500
462
515
540
484
498
543
492
468
518
500
454
496
513
454
468
521
484
474
536
526
484
526
548
493
503
543
489
465
513
491
444
486
503
446
461
509
467
459
552
578
574
665
736
717
696
667
576
546
594
563
502
533
541
478
489
529
476
452
504
479
428
469
489
436
455
498
452
435
487
469
428
470
486
431
447
493
445
432
495
488
453
508
536
487
509
556
510
492
547
530
492
544
559
505
525
573
530
520
585
572
532
581
597
539
550
584
525
497
544
517
471
511
524
468
485
531
481
469
526
512
476
530
549
491
508
551
502
486
543
527
489
539
550
492
507
548
494
476
532
516
478
528
548
495
514
554
504
489
546
528
489
541
558
498
513
556
507
490
549
536
499
550
567
512
533
577
531
520
580
564
520
563
575
513
521
557
501
482
539
526
493
544
556
498
514
550
493
469
516
487
441
480
489
426
441
483
440
429
489
479
448
512
556
535
591
667
666
679
687
587
501
536
543
479
483
514
462
447
502
479
437
478
486
424
438
476
427
412
467
449
416
469
482
429
447
492
445
430
486
466
429
476
488
435
455
501
457
453
519
508
475
532
554
507
538
584
535
519
571
546
505
553
565
510
532
575
528
512
567
543
493
533
538
474
485
516
461
447
499
477
440
493
510
461
485
530
484
475
535
515
483
535
547
493
517
557
507
492
545
522
485
537
556
507
535
582
533
522
575
550
509
556
564
505
515
544
491
480
537
517
482
539
557
508
537
579
527
515
568
540
497
545
552
496
520
562
510
502
561
545
511
562
581
537
574
618
566
549
596
562
514
559
565
504
522
556
499
488
538
509
475
529
538
484
506
556
535
560
655
670
686
773
739
607
592
625
568
544
584
551
508
554
555
488
496
523
460
442
491
463
424
473
484
432
457
499
452
445
502
475
439
486
491
434
453
488
437
436
499
479
454
517
539
497
531
578
536
539
601
578
546
600
607
551
579
622
574
568
628
605
573
626
626
561
571
591
517
490
527
490
446
495
507
462
493
544
499
494
551
531
502
562
572
520
550
595
547
545
604
581
554
616
633
591
631
680
635
637
702
681
649
704
710
656
681
720
666
658
715
691
659
714
722
668
695
732
676
661
706
672
623
662
655
589
599
620
551
528
573
536
495
541
537
474
494
529
475
470
521
486
443
484
481
419
441
464
403
392
443
415
382
432
439
389
417
454
405
407
488
504
509
601
651
646
654
603
479
450
500
469
423
466
471
420
446
477
422
414
463
433
396
445
450
399
427
463
412
414
469
439
406
459
469
421
452
494
446
444
498
473
445
503
513
464
496
539
489
484
538
508
477
527
530
478
506
545
495
491
544
511
471
516
509
449
470
498
432
412
452
414
373
433
453
410
441
471
416
411
461
432
404
465
475
423
447
478
428
432
493
470
442
493
491
438
469
507
461
464
525
499
466
518
518
466
495
535
487
487
542
505
466
516
519
465
496
532
481
478
526
490
453
504
506
456
483
515
461
458
510
474
444
504
515
470
503
536
482
478
527
488
451
500
499
446
474
504
452
451
498
461
425
474
478
442
511
586
573
612
714
702
614
595
566
511
539
563
498
489
537
497
461
510
508
453
482
514
460
460
513
480
448
499
500
450
482
517
461
454
504
469
436
490
494
445
480
519
472
477
537
512
491
554
565
524
569
616
578
592
655
634
607
662
662
604
626
648
582
568
607
557
510
551
538
475
493
512
449
437
477
434
391
438
438
394
434
476
433
441
499
468
441
492
491
444
484
524
477
483
540
506
475
530
530
476
505
531
472
472
522
476
439
487
477
418
438
461
407
402
445
411
380
430
429
380
414
446
392
391
443
408
374
426
428
386
418
451
401
405
467
445
425
483
484
432
459
486
430
430
479
441
409
462
463
420
456
483
432
437
489
457
429
496
529
520
604
684
692
754
797
695
618
663
661
600
620
643
584
583
630
588
553
603
597
545
575
600
540
536
580
537
501
548
539
483
514
543
484
485
537
503
475
534
534
491
535
577
532
542
602
572
549
612
617
578
625
660
614
627
685
654
631
689
677
616
646
669
606
598
640
592
549
586
570
506
527
545
483
477
521
480
453
509
504
459
497
526
476
484
536
501
475
533
532
488
528
560
510
518
572
536
507
561
556
511
549
567
506
510
557
515
484
537
525
471
505
531
473
478
527
489
461
517
515
472
513
544
490
501
552
509
480
533
527
480
520
551
499
508
559
522
500
563
563
514
543
562
500
498
542
497
468
518
509
457
498
524
465
471
519
480
453
508
506
479
556
633
628
686
805
789
698
676
635
574
599
607
535
531
573
519
480
524
505
446
475
495
436
437
482
440
413
464
454
406
446
469
410
417
473
438
419
480
478
436
484
521
476
492
552
518
496
556
556
515
564
601
559
581
644
618
604
671
671
630
675
703
646
653
702
657
624
674
657
600
636
658
596
599
644
599
568
621
610
561
607
639
589
605
663
628
606
660
643
589
626
645
583
585
629
584
553
602
585
528
561
577
516
514
549
498
467
514
494
439
471
489
431
440
485
443
418
471
463
418
460
487
432
438
485
445
425
481
473
426
467
493
444
458
510
474
459
523
519
474
510
531
470
474
519
474
447
499
488
440
477
503
449
458
505
462
440
496
493
483
567
636
630
695
787
709
600
604
577
524
552
560
491
494
537
490
464
512
495
445
479
499
445
453
495
451
428
484
469
425
466
485
428
441
489
443
422
479
470
431
478
506
452
467
522
484
467
528
522
481
532
562
516
535
587
544
522
573
552
501
536
545
481
486
528
479
450
496
473
420
451
464
403
409
454
410
389
446
439
396
445
478
432
450
501
462
441
494
479
435
475
496
443
454
501
459
440
498
478
426
460
476
418
427
471
425
402
454
440
393
434
457
407
420
469
426
411
467
457
416
463
489
439
458
507
462
448
505
492
451
502
532
488
508
558
511
487
535
514
467
499
508
449
460
506
461
439
490
474
430
469
488
437
463
545
541
570
673
711
699
705
655
563
570
614
556
522
564
536
482
518
529
465
470
502
448
423
473
455
407
448
467
416
432
480
436
418
470
449
400
442
460
403
421
475
442
437
505
501
467
521
548
504
530
586
550
542
601
591
557
612
633
578
596
641
590
565
612
585
529
563
569
501
505
537
483
459
510
487
438
478
491
438
457
507
469
468
537
526
488
539
560
507
526
574
529
513
561
533
479
512
523
465
477
518
467
446
496
471
421
458
472
416
427
466
418
397
447
431
391
440
462
415
437
488
448
438
497
483
442
491
508
450
469
516
474
464
523
510
471
518
540
493
521
577
534
516
569
552
504
545
564
513
536
585
543
531
590
576
534
581
599
543
561
611
590
617
718
747
755
870
905
788
738
761
707
674
713
679
619
650
655
584
591
623
560
533
580
552
504
543
550
487
498
535
481
457
502
475
426
465
478
426
452
498
455
445
508
498
464
516
534
482
506
555
510
499
561
549
515
571
595
546
570
617
575
561
608
582
537
579
585
521
530
563
506
485
533
506
461
502
514
457
472
513
465
448
502
479
435
478
489
434
454
497
449
439
499
482
443
491
506
453
471
514
468
449
498
475
434
477
489
432
453
494
444
428
477
450
403
445
455
398
413
453
403
393
449
427
390
442
464
416
441
487
442
431
491
478
449
508
529
484
516
573
536
536
606
599
573
642
684
653
694
755
718
711
776
764
722
774
795
748
777
829
788
773
827
800
749
787
797
751
796
868
849
863
961
940
818
782
756
685
685
701
624
588
627
589
529
558
549
475
475
489
417
388
428
396
344
387
404
354
376
423
377
366
422
405
367
414
429
374
397
445
401
393
449
434
405
460
480
430
455
503
463
457
514
492
451
493
504
453
476
517
465
448
495
464
415
456
464
410
431
469
417
403
456
434
395
444
461
417
448
491
445
437
491
465
421
465
474
418
444
496
461
464
535
528
498
554
566
510
533
574
519
499
545
517
474
516
521
467
487
521
464
449
503
482
445
494
504
451
471
511
462
453
510
485
439
480
486
436
461
506
462
458
518
499
468
525
548
507
546
591
536
519
570
543
507
563
583
532
550
581
527
517
567
523
466
497
491
444
497
572
563
596
702
687
582
564
547
494
512
535
464
441
487
462
424
476
492
444
470
512
460
448
499
468
426
468
470
412
432
470
418
407
462
440
408
460
472
424
457
503
459
457
517
496
461
511
519
469
498
543
499
498
559
538
508
562
571
525
551
583
523
506
552
518
473
516
515
452
464
494
436
421
473
444
400
452
463
411
438
479
432
429
486
467
439
498
518
480
522
571
525
525
581
555
518
566
569
499
504
528
469
457
503
470
429
477
481
423
442
475
423
412
460
429
388
435
442
391
418
457
404
398
452
428
395
449
458
408
437
472
424
420
476
458
429
478
487
443
480
523
474
465
510
472
426
464
461
404
422
454
400
391
447
422
387
445
462
421
458
504
468
495
595
617
628
740
813
756
721
721
665
665
720
685
640
686
685
623
642
669
602
587
635
600
559
603
604
542
555
581
519
502
541
500
453
491
485
425
446
480
429
427
482
459
427
486
508
460
490
534
489
493
561
548
532
603
628
592
638
690
650
655
717
692
656
712
718
656
677
708
647
638
685
645
598
640
634
571
589
615
553
540
586
547
503
545
539
481
500
521
458
444
489
449
405
446
447
393
417
452
401
395
448
420
388
440
445
398
430
461
407
407
462
433
397
446
454
411
451
498
457
464
529
504
482
547
566
531
573
622
586
599
676
661
634
697
712
669
706
748
700
695
750
724
694
756
764
708
731
762
703
691
738
695
645
688
685
625
652
682
615
597
637
594
546
591
608
581
644
711
695
731
756
635
524
540
519
440
440
451
384
367
406
368
328
372
372
320
348
387
339
340
395
373
348
410
423
380
416
458
412
410
465
438
415
477
492
451
489
535
492
497
558
532
507
567
579
540
584
631
589
598
661
629
595
648
645
585
608
629
564
548
587
541
496
538
530
468
487
514
459
457
503
465
430
483
485
435
469
505
456
459
516
486
457
508
509
459
493
525
471
468
521
488
455
503
502
450
479
509
454
450
496
469
432
477
478
427
458
495
451
462
530
512
492
556
568
527
578
627
585
593
652
624
594
648
653
602
631
665
620
627
689
658
624
674
672
616
645
671
600
586
622
577
541
590
584
525
550
574
519
516
569
553
552
634
668
655
728
745
608
544
574
525
478
513
498
443
470
492
433
426
475
440
407
456
450
391
425
466
426
438
499
472
443
492
487
432
464
498
446
452
509
481
458
516
526
490
540
589
548
561
623
598
569
622
618
563
593
618
549
537
575
525
481
521
506
446
468
490
429
419
456
414
373
415
404
343
372
400
344
350
409
383
362
420
424
382
425
465
419
422
464
425
395
450
449
402
437
469
414
414
462
425
394
444
438
383
414
445
387
385
434
399
369
422
418
368
403
435
385
388
440
406
379
430
426
377
413
444
392
395
450
425
407
471
475
427
458
485
430
428
476
438
400
450
447
397
431
467
417
418
468
435
409
477
511
497
577
657
651
670
673
569
505
554
549
492
516
539
483
486
536
501
470
520
514
457
484
511
459
462
514
482
458
510
501
451
480
504
446
444
489
454
425
479
480
441
484
522
477
492
552
519
496
562
570
536
585
629
588
600
657
623
595
648
637
580
610
632
567
563
607
558
514
552
533
468
493
510
448
446
486
443
414
467
465
421
462
496
451
464
523
490
464
520
521
478
521
551
497
503
558
521
495
548
541
487
520
546
490
489
535
495
466
513
502
453
483
505
453
458
509
472
447
503
501
458
498
531
481
488
542
504
477
534
530
482
518
554
509
526
584
547
517
567
556
500
528
547
486
483
527
485
455
507
502
456
489
513
458
469
542
537
548
640
678
676
704
656
537
515
552
491
441
479
459
398
427
453
396
398
439
398
372
429
427
381
420
450
404
416
463
423
398
455
450
407
448
484
438
453
512
482
467
533
536
499
551
589
542
561
621
590
570
636
640
600
644
675
625
636
688
650
618
669
655
599
631
645
577
572
613
562
526
572
554
501
536
561
505
513
567
529
505
562
559
513
551
577
523
532
580
539
516
571
563
514
550
573
515
518
563
520
491
543
531
479
514
539
486
496
543
502
477
529
521
474
513
543
496
512
571
538
519
582
581
542
586
615
566
580
636
600
575
633
625
575
611
643
597
609
657
612
580
627
607
548
579
598
538
543
590
548
516
565
553
504
541
563
504
517
594
592
609
705
754
752
766
719
611
604
646
588
547
586
563
505
537
555
495
498
546
508
481
532
520
472
509
532
471
476
523
481
448
492
482
444
487
516
469
486
544
511
497
563
562
519
563
595
547
562
618
582
566
633
630
586
633
660
604
609
656
615
589
637
616
551
569
577
509
506
547
498
465
509
488
433
466
481
420
425
469
425
396
446
435
385
419
437
381
385
430
390
365
417
407
357
394
418
362
369
417
381
352
399
387
338
375
400
347
355
402
361
337
393
385
342
385
410
355
364
416
381
361
420
413
371
415
437
382
388
438
403
386
446
442
401
446
476
424
439
498
468
457
517
510
462
504
530
473
486
539
498
475
531
521
478
523
550
500
513
568
531
517
601
631
633
724
806
811
826
815
717
667
718
699
635
664
681
618
624
670
623
593
643
627
574
610
631
573
586
635
589
561
615
596
545
583
605
548
560
608
565
544
600
587
541
584
610
557
570
623
585
568
632
632
602
661
690
638
655
708
666
641
693
674
616
648
661
593
591
625
567
529
569
544
487
521
531
467
472
515
471
446
498
487
442
485
511
459
472
519
477
457
513
502
456
497
520
466
478
527
483
460
516
503
458
500
524
468
478
523
476
454
509
493
447
488
510
456
472
524
484
466
526
517
473
518
544
491
498
541
498
479
537
525
482
529
555
506
526
580
545
535
595
579
530
568
583
518
525
568
521
492
545
534
490
534
554
500
513
559
514
497
576
599
591
677
749
741
748
728
616
570
623
601
541
568
574
508
513
549
494
465
510
488
438
470
482
424
436
479
433
410
460
444
394
430
446
390
400
447
407
392
451
443
405
450
475
425
440
484
444
429
487
478
440
487
513
461
476
523
475
450
497
474
422
454
466
400
407
446
396
371
419
400
352
390
406
351
367
414
373
360
420
413
375
429
458
410
429
478
440
425
483
472
432
477
498
447
462
508
464
443
494
476
421
455
471
415
427
466
418
395
444
430
385
427
445
390
405
450
407
391
448
439
396
442
464
415
433
480
442
427
482
468
429
477
500
452
479
534
494
476
523
500
453
490
505
443
449
491
447
432
487
469
426
469
488
433
447
499
478
499
602
629
630
728
748
626
586
615
565
535
572
542
490
526
537
477
490
530
482
457
502
481
434
473
486
427
439
481
434
416
470
451
403
445
466
415
429
472
427
410
462
443
401
447
472
422
441
491
451
437
498
488
454
509
535
488
514
565
525
510
569
553
508
548
560
502
517
558
506
482
538
520
476
523
543
495
517
569
532
528
596
583
545
594
615
562
582
630
583
566
623
605
560
608
627
577
596
642
595
571
619
600
557
604
623
562
576
618
572
557
610
587
540
585
599
544
562
605
563
543
598
582
537
584
599
544
563
604
553
534
591
571
529
572
586
531
557
609
562
544
596
572
524
563
576
519
533
576
527
510
565
548
504
550
563
508
523
558
521
536
631
654
652
754
806
707
649
652
589
556
584
541
484
517
522
462
469
500
446
430
484
463
420
462
471
413
428
465
412
392
444
420
374
418
432
382
409
452
409
404
459
451
416
463
478
424
444
488
446
440
505
497
471
533
558
510
541
591
547
535
593
574
531
576
588
532
548
585
535
518
572
550
509
554
572
519
538
583
543
537
602
589
557
616
642
599
629
680
640
631
692
680
647
706
730
683
710
756
706
688
741
713
667
706
711
650
660
688
625
599
641
604
549
588
595
529
542
577
523
504
553
523
476
519
525
467
482
521
467
451
506
480
438
489
510
463
491
535
481
464
512
485
440
485
493
438
460
504
458
442
497
476
438
484
499
448
480
557
549
584
687
718
715
731
669
569
581
618
552
522
559
526
478
520
526
467
481
518
462
445
494
468
427
475
488
437
461
501
448
431
480
455
417
466
479
431
457
504
462
460
526
512
481
541
562
516
550
595
549
544
608
590
556
611
623
566
592
632
578
563
613
582
536
578
579
507
518
547
487
464
507
475
436
482
489
437
465
512
470
469
533
521
487
541
562
515
544
585
531
514
563
535
494
539
543
487
509
542
479
449
484
455
419
467
467
403
420
457
404
391
444
424
390
442
451
391
406
437
385
376
435
414
375
422
427
371
398
447
408
406
460
435
396
440
445
392
416
450
401
393
438
404
369
424
434
378
403
448
404
406
489
498
494
585
635
603
581
539
446
431
487
457
417
466
474
420
440
470
423
412
462
434
397
443
453
398
423
467
424
421
475
449
412
458
462
405
430
470
425
421
477
456
424
474
489
444
479
526
482
482
546
533
508
571
588
542
572
614
562
543
588
553
508
552
552
495
517
551
495
478
517
475
428
466
463
406
425
463
414
406
465
447
422
481
495
448
479
523
477
476
535
514
484
539
553
502
528
570
524
521
575
546
506
552
554
498
523
557
501
492
546
513
471
518
522
467
493
534
484
478
532
504
467
517
523
471
499
537
489
482
535
507
477
539
556
513
543
579
520
505
550
513
469
508
504
449
471
494
433
420
466
431
389
435
440
402
459
532
522
564
686
699
625
612
584
523
549
580
528
527
584
554
514
560
561
503
527
564
513
506
558
530
497
542
544
492
518
552
497
490
540
510
479
534
547
503
541
593
555
567
638
623
596
659
678
638
676
724
681
684
745
721
690
750
758
705
733
768
707
695
737
694
644
681
669
597
608
632
565
548
590
547
501
543
540
485
508
545
492
481
534
503
462
506
507
454
479
512
456
449
499
467
430
476
476
425
454
486
436
435
484
453
421
474
479
428
458
495
446
444
498
468
438
492
497
450
485
526
478
477
532
502
468
517
520
467
497
532
478
474
534
512
486
542
542
484
508
536
478
470
516
482
445
490
490
440
470
506
455
449
498
465
438
514
552
541
608
689
692
682
668
574
515
556
543
471
479
494
428
413
456
421
386
434
435
385
419
454
404
403
456
429
403
458
463
415
444
479
434
439
498
474
448
507
520
479
520
567
526
535
596
572
546
607
618
577
623
672
633
647
715
697
674
729
737
687
720
753
696
688
737
699
661
709
704
647
675
703
649
644
695
665
631
676
671
620
652
688
635
635
684
645
604
651
642
581
603
630
570
562
606
562
518
560
550
491
516
542
475
464
507
467
430
477
470
418
447
477
424
422
476
446
418
472
475
425
458
494
444
450
502
465
435
493
504
465
507
547
497
497
547
510
474
522
516
464
493
523
472
474
528
501
476
534
538
493
534
606
605
659
768
796
817
859
791
697
726
767
711
702
747
708
671
717
707
645
664
682
612
594
628
574
530
570
557
495
516
535
470
458
495
450
412
454
446
392
421
452
404
410
471
452
437
506
522
485
531
572
527
540
603
574
551
608
607
557
590
619
557
550
587
534
484
513
485
416
431
444
379
369
409
367
332
384
383
336
374
410
365
372
429
394
362
417
419
372
404
437
385
388
439
404
373
421
410
352
379
399
337
330
377
336
302
352
347
291
320
351
300
305
358
323
297
352
352
306
345
381
333
341
397
363
339
398
407
372
419
460
412
421
477
443
418
469
465
418
450
479
424
427
475
436
406
458
453
400
439
495
474
507
596
596
597
619
532
428
447
475
419
415
462
428
405
463
461
413
445
473
420
423
474
439
416
473
474
436
483
517
463
465
515
472
441
486
472
419
451
476
424
431
484
453
432
491
494
454
500
540
493
506
567
540
522
584
590
547
595
635
587
592
645
611
586
642
636
584
615
635
572
568
609
560
524
568
552
497
532
562
505
510
560
522
497
551
545
497
534
559
501
501
540
486
445
480
455
386
401
411
338
321
354
304
267
314
308
260
297
327
275
283
334
297
271
327
323
275
310
336
282
292
352
324
307
373
383
349
396
437
403
429
501
481
466
530
534
495
540
570
517
527
581
550
531
594
592
548
593
628
580
594
652
629
638
734
772
764
862
939
860
810
839
799
764
807
792
735
767
787
724
722
760
707
668
711
694
627
650
662
594
587
626
576
547
599
580
523
561
586
529
536
586
546
524
583
578
534
576
609
560
573
626
586
563
623
614
562
604
636
584
596
648
608
580
631
612
552
576
585
514
503
537
482
440
480
464
414
448
473
421
432
481
444
422
473
462
420
460
486
436
454
516
486
470
532
530
490
533
556
500
510
556
510
483
535
519
468
505
526
470
482
527
476
447
494
479
431
470
493
440
453
506
470
455
517
513
469
510
541
490
504
551
507
488
547
541
497
543
578
537
560
618
577
550
598
577
519
551
563
492
493
538
494
473
530
519
475
516
537
481
494
554
540
552
644
669
678
757
748
636
624
667
611
571
616
595
543
578
593
529
534
579
531
509
564
550
501
541
559
502
510
547
500
476
528
516
472
518
547
498
516
570
533
511
565
553
507
548
566
506
518
564
521
502
566
563
523
570
598
550
568
618
574
549
596
573
518
550
562
495
497
538
487
464
517
497
446
483
500
445
458
503
461
442
499
487
443
484
506
453
469
517
472
452
506
494
453
490
509
460
478
528
489
475
534
521
476
520
535
477
487
532
487
465
521
511
472
517
538
484
499
547
503
482
536
518
471
511
531
476
489
533
488
468
523
511
470
507
521
462
474
520
476
461
516
499
456
507
535
488
506
545
495
472
524
499
452
489
504
452
469
518
475
461
523
510
465
509
528
476
514
597
590
604
704
747
700
685
663
600
615
648
584
549
590
561
502
534
544
479
484
522
470
450
503
477
427
463
477
420
433
478
436
421
479
468
430
480
504
458
478
528
489
478
539
525
484
532
555
505
527
585
555
550
617
618
591
650
682
636
655
691
622
578
616
590
542
581
593
527
534
573
526
505
558
537
487
526
545
495
515
562
517
503
558
539
493
535
547
488
504
547
494
463
498
470
428
481
510
464
480
515
459
435
479
446
391
425
434
374
383
424
375
353
411
403
365
410
422
360
371
411
366
353
408
392
353
406
435
389
412
460
420
413
472
458
419
462
480
429
452
498
453
439
503
493
458
507
515
451
464
512
476
468
521
499
452
477
475
419
444
496
446
422
476
468
449
535
596
580
633
718
715
681
667
604
555
602
603
526
529
562
513
502
559
538
487
517
518
452
465
513
478
470
535
528
499
558
593
563
614
694
670
676
753
740
694
741
760
709
732
776
730
724
790
774
737
789
813
766
794
846
804
780
818
779
708
718
691
583
548
534
437
384
414
381
332
368
372
313
332
372
321
305
366
356
320
366
381
324
341
388
352
351
417
409
378
431
450
393
408
452
407
391
440
417
376
423
440
392
413
458
411
397
447
422
379
419
430
382
410
460
419
414
476
465
439
501
529
483
514
571
536
529
592
582
553
614
646
610
647
699
653
638
688
657
606
647
649
581
595
632
579
554
592
559
504
540
538
470
481
524
500
516
607
619
631
712
690
583
586
625
563
535
572
534
480
516
522
465
485
530
483
473
529
505
460
499
501
434
442
476
423
407
462
444
407
458
477
431
454
498
449
438
493
476
442
490
510
466
498
551
515
517
586
578
549
609
629
578
600
642
590
573
622
595
552
595
599
538
552
586
530
512
559
524
474
513
517
460
478
517
466
458
515
493
457
507
520
472
497
534
483
466
513
485
446
497
508
454
473
512
455
439
491
464
420
463
471
419
444
485
436
427
483
464
433
486
501
452
473
516
473
466
522
501
467
522
537
489
516
557
508
504
562
534
491
539
553
504
526
562
503
492
547
503
451
495
504
450
478
520
469
456
507
480
439
480
486
435
475
543
518
528
605
618
564
541
492
417
429
451
387
370
419
397
362
415
430
382
406
448
405
405
467
442
406
456
466
420
450
499
466
472
527
499
463
533
559
509
526
557
509
513
587
580
552
611
626
575
601
641
588
575
626
599
560
607
609
548
563
591
526
501
537
495
446
486
488
432
452
492
446
443
502
477
445
504
522
479
518
572
533
537
605
589
558
617
632
583
609
642
578
559
596
546
488
527
528
469
485
514
459
450
502
476
442
498
511
460
487
529
482
478
536
521
502
558
566
518
547
582
531
531
594
573
540
596
606
556
585
617
561
546
588
549
504
546
543
478
490
515
453
439
487
450
406
448
444
385
404
435
383
379
437
418
393
456
493
493
568
652
643
700
794
730
636
666
672
610
620
644
578
562
610
574
531
571
568
503
516
537
469
451
491
451
407
450
451
397
427
469
422
422
482
462
434
493
507
463
493
536
495
498
562
545
523
597
621
589
640
704
679
698
773
763
739
804
820
773
804
847
795
783
837
811
772
820
821
756
769
787
713
678
699
635
570
604
587
514
533
565
511
505
556
521
481
527
524
462
481
506
447
436
489
462
430
486
494
450
484
524
468
459
505
468
427
470
468
410
434
470
414
404
452
421
385
435
435
375
395
422
365
356
404
367
325
372
374
321
350
388
339
345
411
393
367
422
419
363
390
425
374
367
407
369
328
372
372
318
344
378
326
319
369
340
316
403
440
412
463
529
474
407
398
350
321
376
373
316
344
383
334
334
383
351
315
366
372
326
361
405
366
379
443
425
407
468
481
443
481
520
475
484
548
526
505
569
583
547
596
651
618
636
707
695
675
743
762
724
768
813
772
778
838
814
789
850
858
806
837
872
818
816
868
828
782
827
828
773
800
834
778
772
821
784
746
798
799
741
771
807
752
744
787
743
697
738
728
665
675
685
609
586
621
569
515
546
528
459
473
491
425
412
453
409
365
409
406
353
385
421
371
373
430
403
373
428
430
387
425
464
415
412
469
451
431
496
503
453
486
523
472
475
530
494
457
504
500
447
477
500
436
427
467
425
386
440
463
431
480
526
478
445
411
301
239
290
292
234
256
285
237
242
302
273
242
299
305
260
296
336
288
292
347
318
290
350
364
322
361
402
357
359
412
382
352
404
411
373
411
450
408
422
484
458
435
496
502
456
488
518
460
460
511
473
440
493
495
447
479
516
467
462
507
473
440
489
480
427
455
482
423
420
467
433
402
459
465
422
462
501
457
466
526
498
472
528
530
486
527
562
518
527
590
567
550
615
625
585
629
671
628
641
703
674
646
701
695
641
674
701
639
635
685
646
609
656
653
605
640
671
609
606
661
624
592
642
636
584
620
650
595
598
652
620
596
651
648
603
639
665
607
605
651
607
569
642
665
648
720
795
798
800
790
694
631
664
635
559
575
591
525
522
568
522
487
537
531
483
521
558
504
504
554
520
494
548
540
487
520
550
497
502
551
509
475
524
513
455
476
494
433
428
469
425
389
431
418
361
391
419
365
370
423
391
365
415
410
362
400
430
377
381
434
401
376
431
431
389
431
467
423
430
482
452
433
495
498
460
506
544
498
507
563
528
503
560
561
516
550
576
520
525
575
534
504
555
544
488
513
529
461
455
499
456
425
472
459
406
441
464
401
403
454
420
394
451
451
415
467
510
466
475
525
486
459
511
503
455
495
527
479
493
551
522
505
569
568
523
565
597
563
612
713
727
757
883
901
797
782
807
766
777
829
781
738
785
762
702
735
755
695
699
749
711
685
742
737
685
718
739
673
669
708
655
612
648
623
559
576
577
502
492
527
471
428
465
435
366
386
402
339
331
368
318
280
322
307
259
315
365
317
303
310
240
196
242
228
169
200
222
164
165
212
185
168
231
233
198
247
280
233
249
309
284
270
336
344
310
362
402
361
374
429
402
389
451
450
405
448
480
431
440
487
450
425
478
475
430
468
499
448
457
513
481
463
525
528
490
537
573
533
560
629
602
598
678
691
656
707
743
694
708
765
727
702
757
748
697
731
752
691
692
736
686
657
707
692
654
725
784
758
800
898
847
746
740
713
661
690
700
640
650
704
664
639
692
671
608
632
640
563
549
575
519
484
530
514
464
498
516
452
448
477
421
388
434
420
374
416
445
398
417
472
442
428
487
480
434
474
498
448
456
502
465
447
509
508
469
514
543
486
495
540
493
463
508
487
436
472
491
437
450
505
473
461
525
524
487
539
566
515
533
593
559
541
602
596
553
599
626
572
584
635
594
574
637
627
571
603
618
551
547
578
524
491
534
513
458
491
510
456
471
518
479
464
523
512
464
502
521
464
471
517
469
443
495
489
452
502
528
473
484
534
487
457
504
484
432
468
487
432
445
491
450
430
488
479
437
484
532
519
582
