495
462
513
499
446
482
507
452
459
505
456
425
476
466
424
470
501
450
461
507
458
427
478
468
431
492
537
492
498
533
474
445
506
508
480
543
582
539
563
610
553
516
560
540
496
549
584
540
555
600
551
517
553
517
447
470
481
425
435
483
441
424
485
476
434
483
510
456
464
510
472
462
530
525
480
522
537
472
472
507
453
426
480
468
426
465
483
427
435
471
420
402
456
430
371
397
389
307
299
339
300
289
355
355
326
380
406
344
347
392
354
348
420
417
388
446
476
428
451
504
466
457
518
501
460
505
519
461
476
526
490
495
605
653
676
791
882
871
858
838
753
729
783
755
688
712
715
653
673
724
680
677
749
743
710
771
800
754
782
841
806
801
866
846
794
832
842
777
792
829
775
760
823
812
778
832
847
793
811
856
804
784
839
814
762
798
800
729
729
763
706
684
733
699
640
668
658
577
558
526
403
356
418
399
342
363
356
303
341
400
361
355
415
395
356
406
422
367
387
428
379
352
392
362
317
363
378
328
358
404
359
352
410
387
339
377
382
324
348
398
361
361
424
401
360
407
418
360
379
417
367
359
414
386
341
382
387
339
377
432
396
399
466
447
420
473
485
432
454
492
436
422
472
443
399
438
436
375
402
469
476
523
643
686
708
772
725
603
596
620
557
532
572
531
485
526
522
461
484
515
450
434
479
445
406
453
457
401
432
474
420
406
454
421
381
430
434
382
412
451
408
412
479
460
429
479
478
418
443
477
426
427
489
468
440
491
493
438
461
495
441
437
490
456
411
450
440
373
386
414
354
344
398
371
341
397
408
362
392
430
379
377
433
407
380
438
441
394
430
474
431
431
487
460
432
490
490
433
460
489
433
432
485
454
424
481
487
438
473
513
469
473
528
493
457
505
502
443
463
489
432
435
495
468
440
491
484
429
459
487
434
434
487
451
415
467
464
410
443
478
430
438
501
484
488
580
617
598
673
736
642
570
583
535
498
545
534
479
516
558
519
535
592
555
522
572
560
496
517
538
477
480
536
502
478
541
542
487
516
541
480
482
532
492
460
507
498
448
487
528
485
503
568
541
517
575
576
532
570
601
545
546
595
546
503
544
528
472
510
547
506
524
584
540
497
533
510
448
481
512
459
463
514
471
448
515
524
491
548
589
538
552
612
582
564
631
636
597
641
660
574
546
571
511
477
541
553
529
592
633
573
561
577
500
443
473
458
421
479
525
481
489
527
469
432
489
497
475
538
573
508
489
506
441
406
465
475
454
523
571
524
522
543
477
439
495
500
471
538
608
591
629
700
683
674
690
607
521
567
602
549
556
598
549
520
575
568
522
559
558
469
449
472
416
392
463
477
462
533
578
526
529
560
492
453
504
497
458
508
533
474
476
512
461
442
508
515
498
564
600
551
562
604
548
520
576
565
529
585
616
563
573
610
553
527
578
560
516
562
579
515
517
550
496
474
536
528
492
551
583
537
557
605
559
541
597
581
538
583
599
532
534
571
516
492
552
546
514
573
600
548
562
603
546
512
554
526
467
496
499
433
443
488
444
433
502
500
466
521
546
496
513
548
501
491
559
545
497
532
537
469
476
514
462
445
508
501
474
530
549
494
513
552
500
478
533
530
513
595
645
636
714
750
634
569
617
600
549
587
597
538
555
595
540
517
565
531
477
514
520
454
469
512
466
458
521
507
475
532
551
495
512
546
486
462
506
477
439
490
503
457
486
539
497
494
559
541
505
557
569
510
528
566
513
499
561
548
521
574
588
534
552
584
519
492
532
497
452
499
514
460
482
523
474
468
531
519
491
546
562
510
532
567
505
482
527
495
453
502
514
458
479
521
473
471
533
510
476
530
541
484
505
540
482
464
510
478
438
487
495
447
480
528
486
485
546
524
490
543
551
493
516
552
498
485
535
500
461
518
534
486
516
560
512
508
567
541
499
544
544
484
504
540
487
480
531
500
460
504
507
467
530
607
597
643
773
768
669
654
629
552
550
548
460
435
478
444
406
459
463
406
433
474
425
420
472
445
407
457
462
411
438
468
411
400
447
414
378
431
436
384
408
454
415
425
493
478
453
512
522
474
505
539
483
479
535
509
482
545
559
515
550
592
547
551
611
577
536
578
566
502
523
551
494
492
547
517
484
540
545
498
537
584
540
548
614
595
569
624
627
574
609
651
607
617
681
652
625
690
705
668
714
765
723
727
784
750
710
754
740
671
691
717
654
649
699
660
620
669
665
600
622
650
593
591
637
589
540
571
545
473
487
505
441
439
490
457
428
478
473
424
463
504
455
458
505
458
418
460
452
397
427
460
406
404
458
427
402
462
467
422
462
496
441
450
531
527
528
617
665
639
618
572
486
485
534
487
447
496
487
434
465
490
428
424
468
427
397
455
453
405
444
478
426
433
490
457
430
490
488
437
469
493
431
429
477
445
422
485
495
464
518
563
519
534
595
562
537
594
590
537
576
603
550
563
621
593
576
639
631
574
598
604
524
508
538
485
454
511
511
472
517
549
498
509
563
522
499
557
546
493
528
546
481
482
529
487
465
522
517
471
512
539
486
499
555
521
502
562
548
495
527
538
468
466
505
457
432
489
486
446
494
528
476
495
552
511
489
545
535
486
520
534
469
473
518
477
457
515
508
467
511
538
485
508
574
548
535
593
574
518
550
560
492
493
532
485
460
510
495
450
494
522
481
508
572
562
588
686
712
703
780
779
629
567
590
538
509
557
538
491
531
548
489
496
535
480
447
485
456
398
429
440
380
391
434
393
373
425
407
359
402
420
363
375
415
366
343
398
387
349
403
434
392
409
457
417
398
454
449
414
470
503
453
467
516
466
440
493
478
440
489
510
451
455
484
417
380
427
413
381
439
479
445
476
534
494
473
524
506
467
521
548
501
524
569
518
492
540
520
481
537
569
523
547
593
540
513
561
538
496
548
571
522
539
571
504
467
506
474
432
487
519
479
509
566
526
511
564
539
492
537
550
493
502
537
481
463
520
506
473
533
563
519
545
597
556
548
612
600
558
600
612
551
560
587
520
491
538
515
477
531
554
507
537
586
536
525
593
597
582
667
714
703
740
726
598
545
591
562
510
552
559
502
515
547
491
471
514
479
425
455
451
381
397
436
388
375
433
417
386
439
452
387
398
433
385
377
435
415
376
428
442
394
418
459
409
399
459
439
406
458
467
412
435
479
432
427
487
469
430
476
483
428
449
478
419
403
453
424
381
431
444
393
422
470
431
434
501
485
457
516
533
484
510
553
506
503
564
540
501
549
554
496
522
563
516
522
595
592
573
640
663
615
644
680
620
609
662
628
582
628
628
568
594
639
595
594
660
647
623
685
697
642
665
695
633
618
667
634
593
643
651
603
638
687
643
650
725
713
680
733
737
673
685
710
642
616
653
605
551
594
594
537
559
590
537
529
584
573
571
660
698
678
754
790
658
571
585
536
481
512
507
454
483
518
464
459
518
483
436
475
467
404
423
447
385
378
431
405
378
436
443
396
429
465
414
412
465
434
401
456
463
416
453
499
458
465
533
518
499
560
566
517
545
569
502
491
538
504
476
532
537
493
529
561
505
502
552
509
464
507
500
444
469
497
438
438
493
466
445
510
525
491
539
584
544
563
636
615
595
656
658
609
644
676
617
620
686
667
647
717
729
684
723
754
693
686
729
680
641
693
695
647
686
721
668
679
745
722
692
742
729
672
699
709
632
620
653
591
539
580
565
497
515
532
468
459
504
468
443
506
511
465
494
510
440
428
465
417
379
421
411
356
391
424
368
372
428
395
367
422
426
400
472
538
516
557
660
626
529
517
482
424
447
458
391
393
442
410
391
446
443
393
427
451
395
401
453
420
401
465
468
426
469
503
452
458
503
456
424
466
452
400
434
462
416
437
506
486
478
550
553
513
560
591
536
542
587
542
515
571
564
517
560
591
536
539
583
540
514
564
541
476
498
510
447
452
500
458
435
491
483
438
479
506
454
469
522
481
454
506
495
450
487
509
458
473
523
483
461
513
497
453
501
531
481
498
551
508
477
527
518
473
513
532
471
487
544
504
479
521
496
451
505
546
493
503
550
514
502
561
529
427
384
318
196
177
237
233
266
392
442
427
469
473
410
418
455
403
373
420
401
352
392
416
368
395
471
463
480
578
603
586
661
720
681
644
601
506
474
523
497
445
489
519
472
495
544
494
469
516
496
451
496
522
469
490
548
508
491
552
536
485
529
558
509
525
568
521
502
563
558
518
566
593
552
579
634
591
576
633
620
578
630
649
587
606
660
616
600
655
632
577
608
611
538
531
550
479
441
481
452
396
424
427
362
369
401
349
329
383
362
317
361
383
340
370
422
392
394
466
461
429
481
503
455
475
522
482
474
547
543
516
580
613
567
588
632
576
555
603
578
529
569
576
507
509
535
475
450
491
458
402
438
441
379
395
436
390
386
459
461
442
507
536
495
529
580
536
524
582
566
530
589
615
568
596
646
599
586
642
620
587
665
712
684
735
827
793
724
711
655
600
630
615
530
526
547
481
458
504
473
427
471
482
431
451
489
436
420
472
448
403
452
465
410
430
470
425
422
484
463
420
475
503
467
492
529
479
470
524
497
458
511
530
482
507
556
525
534
599
576
535
588
605
560
596
648
602
588
636
604
555
601
605
539
555
589
525
501
546
519
483
540
558
507
532
567
506
494
552
532
501
552
554
494
513
548
496
489
545
514
464
497
481
409
423
452
395
383
431
397
353
395
393
335
360
402
358
353
409
379
338
389
403
354
385
431
390
398
470
463
451
530
560
535
596
671
646
658
733
722
697
762
782
738
773
817
769
762
817
784
742
786
774
694
702
741
705
721
798
792
794
850
782
642
627
640
560
523
552
505
458
498
493
428
452
480
430
421
464
431
392
444
447
399
432
468
412
403
451
421
381
425
427
373
402
433
378
374
428
395
367
424
433
387
424
467
425
434
495
474
452
518
533
496
536
581
529
525
571
523
468
496
480
424
448
476
424
423
478
448
418
474
484
438
471
511
464
472
532
503
479
547
566
527
574
626
587
593
649
620
592
650
652
600
633
665
609
608
657
619
582
637
631
573
604
638
578
573
623
587
555
608
609
559
600
637
586
593
652
623
596
655
653
599
630
658
594
587
631
590
557
612
608
546
569
589
518
507
543
491
448
484
469
410
436
464
409
409
458
420
386
447
473
461
541
623
619
676
722
616
533
575
573
515
540
562
504
503
550
508
471
514
503
447
469
486
425
423
471
430
396
447
438
384
416
440
384
389
441
408
386
448
452
407
446
486
442
455
514
484
466
529
534
495
546
584
544
567
626
589
563
619
612
557
586
603
537
530
569
516
475
516
497
435
463
484
421
420
463
420
392
446
436
387
427
459
411
421
471
434
410
468
469
422
459
487
435
441
492
457
439
499
497
452
491
523
476
485
535
497
472
522
512
467
514
545
493
505
560
521
501
563
562
519
562
588
526
528
573
519
488
540
523
471
509
538
491
507
558
511
486
537
517
455
487
503
441
446
496
453
427
482
472
426
468
493
440
459
540
537
552
654
698
685
692
644
546
545
590
538
502
543
521
465
497
510
445
453
496
447
424
478
468
426
470
494
438
450
498
452
427
479
467
426
468
488
439
460
515
478
465
528
519
477
525
552
506
530
587
551
541
603
590
543
587
603
538
541
574
513
478
521
496
445
482
495
427
429
466
417
392
440
422
374
415
435
385
410
465
429
422
489
480
441
492
521
476
502
555
514
501
562
549
508
555
576
522
538
582
528
503
554
531
482
521
532
470
478
518
466
448
501
481
438
487
509
456
476
525
481
469
531
516
473
523
546
497
521
575
537
523
586
577
548
603
621
560
573
611
554
530
576
542
488
528
542
483
493
532
480
460
508
483
439
494
541
521
583
674
683
709
733
640
561
603
612
543
550
586
532
514
565
538
490
529
535
473
484
522
473
457
508
487
446
489
499
445
464
504
453
436
489
467
426
476
493
445
472
523
482
479
536
515
481
537
560
515
544
595
552
545
605
587
550
602
608
546
560
593
535
516
561
527
479
519
520
460
476
513
460
444
496
470
432
486
504
451
477
524
480
474
531
508
471
520
530
476
499
539
489
482
538
512
473
522
531
476
498
535
476
462
512
480
438
483
490
438
461
501
455
452
513
491
462
517
523
472
499
537
482
471
523
494
456
508
518
469
503
552
512
513
568
532
485
528
524
457
465
490
433
426
481
456
423
476
486
438
464
502
461
481
573
588
593
698
768
715
684
678
615
601
643
597
547
589
584
524
545
572
509
492
536
500
458
503
504
452
479
515
463
459
513
481
441
489
489
433
455
491
440
438
495
473
450
513
529
485
521
566
519
520
582
557
526
587
594
540
573
612
555
551
604
569
526
568
563
500
515
533
466
450
488
442
395
436
430
374
400
445
409
421
490
472
450
513
523
479
519
563
519
528
594
573
550
616
628
583
614
648
594
592
640
599
556
597
589
534
565
600
548
548
602
568
534
586
581
525
554
585
527
524
570
530
492
541
538
484
516
549
495
503
566
538
510
565
562
513
550
581
522
513
557
515
479
528
527
477
515
553
502
505
555
518
483
533
526
468
498
543
528
580
688
716
752
854
817
684
672
692
630
616
649
596
551
593
577
515
540
560
499
496
543
499
459
500
490
433
459
483
427
430
486
452
421
475
473
420
455
493
452
465
521
490
472
535
535
490
533
572
531
548
607
574
545
599
593
545
579
600
531
523
562
514
480
531
519
462